time ,I,II,III,AVR,AVL,AVF,V1,V2,V3,V4,V5,V6
0.0,-0.115,-0.05,0.065,0.082,-0.09,0.007,-0.065,-0.04,-0.005,-0.035,-0.035,-0.075
0.002,-0.115,-0.05,0.065,0.082,-0.09,0.007,-0.065,-0.04,-0.005,-0.035,-0.035,-0.075
0.004,-0.115,-0.05,0.065,0.082,-0.09,0.007,-0.065,-0.04,-0.005,-0.035,-0.035,-0.075
0.006,-0.115,-0.05,0.065,0.082,-0.09,0.007,-0.065,-0.04,-0.005,-0.035,-0.035,-0.075
0.008,-0.115,-0.05,0.065,0.082,-0.09,0.007,-0.065,-0.04,-0.005,-0.035,-0.035,-0.075
0.01,-0.115,-0.05,0.065,0.082,-0.09,0.007,-0.065,-0.04,-0.005,-0.035,-0.035,-0.075
0.012,-0.115,-0.05,0.065,0.082,-0.09,0.007,-0.065,-0.036,-0.005,-0.031,-0.035,-0.075
0.014,-0.117,-0.051,0.066,0.083,-0.092,0.007,-0.062,-0.035,-0.005,-0.03,-0.032,-0.072
0.016,-0.109,-0.048,0.061,0.078,-0.085,0.006,-0.059,-0.035,-0.005,-0.03,-0.029,-0.069
0.018,-0.108,-0.045,0.064,0.076,-0.086,0.009,-0.06,-0.035,-0.006,-0.03,-0.03,-0.07
0.02,-0.13,-0.045,0.085,0.087,-0.107,0.02,-0.06,-0.035,-0.01,-0.03,-0.03,-0.07
0.022,-0.127,-0.045,0.082,0.086,-0.104,0.018,-0.056,-0.035,-0.01,-0.026,-0.03,-0.07
0.024,-0.121,-0.042,0.079,0.081,-0.1,0.018,-0.054,-0.036,-0.009,-0.025,-0.027,-0.067
0.026,-0.12,-0.039,0.08,0.079,-0.1,0.021,-0.056,-0.033,-0.012,-0.025,-0.024,-0.064
0.028,-0.12,-0.04,0.08,0.08,-0.1,0.02,-0.054,-0.03,-0.015,-0.025,-0.025,-0.065
0.03,-0.12,-0.04,0.08,0.08,-0.1,0.02,-0.05,-0.03,-0.015,-0.025,-0.025,-0.065
0.032,-0.112,-0.036,0.076,0.073,-0.093,0.02,-0.05,-0.03,-0.015,-0.025,-0.021,-0.065
0.034,-0.109,-0.034,0.075,0.071,-0.091,0.02,-0.051,-0.03,-0.014,-0.022,-0.02,-0.062
0.036,-0.111,-0.036,0.075,0.073,-0.092,0.02,-0.048,-0.03,-0.017,-0.019,-0.02,-0.059
0.038,-0.109,-0.034,0.075,0.071,-0.092,0.02,-0.045,-0.03,-0.02,-0.02,-0.02,-0.06
0.04,-0.105,-0.03,0.075,0.067,-0.09,0.022,-0.045,-0.03,-0.02,-0.02,-0.02,-0.06
0.042,-0.105,-0.03,0.075,0.067,-0.09,0.022,-0.045,-0.026,-0.02,-0.02,-0.016,-0.056
0.044,-0.103,-0.031,0.072,0.066,-0.087,0.02,-0.042,-0.025,-0.02,-0.017,-0.015,-0.055
0.046,-0.098,-0.028,0.069,0.063,-0.083,0.021,-0.039,-0.025,-0.018,-0.014,-0.015,-0.055
0.048,-0.095,-0.025,0.07,0.06,-0.082,0.022,-0.04,-0.025,-0.014,-0.015,-0.015,-0.055
0.05,-0.095,-0.025,0.07,0.06,-0.082,0.022,-0.04,-0.025,-0.01,-0.015,-0.015,-0.055
0.052,-0.095,-0.025,0.07,0.06,-0.082,0.022,-0.036,-0.025,-0.006,-0.015,-0.011,-0.051
0.054,-0.093,-0.025,0.068,0.059,-0.08,0.021,-0.035,-0.025,-0.005,-0.016,-0.009,-0.05
0.056,-0.101,-0.023,0.078,0.062,-0.089,0.027,-0.033,-0.023,-0.004,-0.013,-0.011,-0.05
0.058,-0.12,-0.019,0.101,0.069,-0.11,0.04,-0.029,-0.019,0.001,-0.01,-0.009,-0.05
0.06,-0.13,-0.015,0.115,0.072,-0.122,0.05,-0.03,-0.015,0.005,-0.01,-0.005,-0.05
0.062,-0.122,-0.011,0.111,0.067,-0.117,0.05,-0.03,-0.011,0.005,-0.006,-0.005,-0.046
0.064,-0.117,-0.007,0.11,0.062,-0.113,0.051,-0.027,-0.007,0.007,-0.005,-0.005,-0.045
0.066,-0.111,-0.002,0.108,0.056,-0.109,0.052,-0.024,-0.003,0.013,-0.003,-0.005,-0.045
0.068,-0.105,0.0,0.105,0.052,-0.105,0.052,-0.025,0.0,0.015,0.001,-0.004,-0.045
0.07,-0.105,0.0,0.105,0.052,-0.105,0.052,-0.025,0.0,0.015,0.0,0.0,-0.045
0.072,-0.093,0.008,0.101,0.043,-0.097,0.054,-0.021,0.004,0.019,-0.001,0.0,-0.041
0.074,-0.084,0.016,0.1,0.034,-0.092,0.058,-0.019,0.009,0.02,0.003,-0.001,-0.04
0.076,-0.074,0.024,0.098,0.025,-0.086,0.061,-0.021,0.01,0.02,0.005,0.002,-0.04
0.078,-0.063,0.032,0.095,0.015,-0.079,0.063,-0.019,0.011,0.02,0.006,0.005,-0.04
0.08,-0.055,0.04,0.095,0.007,-0.075,0.067,-0.015,0.015,0.02,0.01,0.005,-0.04
0.082,-0.043,0.048,0.091,-0.003,-0.067,0.069,-0.015,0.019,0.02,0.01,0.005,-0.036
0.084,-0.036,0.054,0.09,-0.009,-0.063,0.072,-0.014,0.021,0.02,0.013,0.004,-0.035
0.086,-0.035,0.054,0.089,-0.01,-0.062,0.071,-0.02,0.018,0.02,0.016,0.007,-0.035
0.088,-0.035,0.049,0.084,-0.007,-0.059,0.066,-0.033,0.014,0.02,0.014,0.01,-0.035
0.09,-0.035,0.045,0.08,-0.005,-0.058,0.062,-0.045,0.01,0.02,0.015,0.01,-0.035
0.092,-0.039,0.041,0.08,-0.001,-0.06,0.061,-0.057,0.01,0.02,0.023,0.01,-0.035
0.094,-0.04,0.037,0.077,0.001,-0.059,0.057,-0.071,0.007,0.022,0.028,0.009,-0.032
0.096,-0.041,0.034,0.075,0.003,-0.058,0.054,-0.074,0.003,0.015,0.032,0.013,-0.029
0.098,-0.047,0.028,0.075,0.009,-0.061,0.05,-0.069,-0.001,0.021,0.036,0.022,-0.03
0.1,-0.045,0.025,0.07,0.01,-0.058,0.047,-0.07,0.0,0.055,0.04,0.025,-0.03
0.102,-0.015,0.05,0.066,-0.018,-0.041,0.058,-0.07,0.008,0.053,0.044,0.029,-0.03
0.104,-0.011,0.054,0.065,-0.022,-0.038,0.059,-0.07,0.014,0.048,0.045,0.033,-0.027
0.106,-0.029,0.036,0.065,-0.004,-0.047,0.051,-0.07,0.017,0.051,0.045,0.037,-0.024
0.108,-0.007,0.049,0.057,-0.021,-0.032,0.053,-0.069,0.021,0.049,0.045,0.041,-0.025
0.11,0.035,0.095,0.06,-0.065,-0.013,0.077,-0.065,0.025,0.045,0.045,0.045,-0.025
0.112,-0.027,0.09,0.116,-0.032,-0.072,0.103,-0.065,0.021,0.045,0.045,0.041,-0.025
0.114,-0.037,0.078,0.114,-0.021,-0.076,0.096,-0.065,0.016,0.046,0.045,0.039,-0.025
0.116,-0.01,0.071,0.081,-0.031,-0.046,0.076,-0.065,0.015,0.043,0.045,0.04,-0.023
0.118,-0.004,0.063,0.067,-0.029,-0.036,0.065,-0.065,0.014,0.04,0.045,0.04,-0.019
0.12,0.005,0.055,0.05,-0.03,-0.023,0.052,-0.065,0.01,0.04,0.045,0.04,-0.015
0.122,0.02,0.047,0.027,-0.033,-0.004,0.036,-0.065,0.005,0.04,0.045,0.04,-0.011
0.124,-0.028,0.041,0.069,-0.007,-0.049,0.055,-0.062,0.006,0.041,0.046,0.041,-0.008
0.126,-0.076,0.024,0.101,0.026,-0.089,0.062,-0.059,0.002,0.037,0.04,0.035,-0.018
0.128,-0.088,0.0,0.088,0.044,-0.089,0.043,-0.06,-0.007,0.028,0.027,0.022,-0.04
0.13,-0.11,-0.02,0.09,0.065,-0.1,0.035,-0.06,-0.01,0.02,0.02,0.015,-0.055
0.132,-0.136,-0.045,0.09,0.09,-0.113,0.023,-0.06,-0.013,0.012,0.013,0.008,-0.061
0.134,-0.145,-0.055,0.09,0.1,-0.117,0.017,-0.061,-0.021,0.004,0.001,-0.004,-0.085
0.136,-0.145,-0.055,0.09,0.1,-0.117,0.017,-0.058,-0.028,-0.004,-0.009,-0.014,-0.096
0.138,-0.145,-0.055,0.09,0.1,-0.117,0.017,-0.055,-0.031,-0.011,-0.017,-0.022,-0.089
0.14,-0.145,-0.055,0.09,0.1,-0.117,0.017,-0.055,-0.035,-0.015,-0.025,-0.03,-0.09
0.142,-0.144,-0.054,0.09,0.099,-0.116,0.018,-0.055,-0.039,-0.02,-0.03,-0.035,-0.09
0.144,-0.155,-0.065,0.09,0.11,-0.122,0.012,-0.055,-0.04,-0.018,-0.03,-0.035,-0.09
0.146,-0.16,-0.07,0.09,0.115,-0.125,0.01,-0.055,-0.04,-0.028,-0.03,-0.035,-0.09
0.148,-0.154,-0.064,0.09,0.109,-0.122,0.012,-0.055,-0.04,-0.041,-0.03,-0.035,-0.09
0.15,-0.155,-0.065,0.09,0.11,-0.122,0.012,-0.055,-0.04,-0.035,-0.03,-0.035,-0.09
0.152,-0.155,-0.065,0.09,0.11,-0.122,0.012,-0.059,-0.04,-0.035,-0.03,-0.035,-0.09
0.154,-0.155,-0.065,0.09,0.11,-0.122,0.012,-0.06,-0.041,-0.035,-0.03,-0.034,-0.087
0.156,-0.155,-0.065,0.09,0.11,-0.122,0.012,-0.06,-0.038,-0.035,-0.03,-0.037,-0.084
0.158,-0.155,-0.064,0.091,0.109,-0.122,0.013,-0.06,-0.035,-0.035,-0.031,-0.04,-0.085
0.16,-0.15,-0.06,0.09,0.105,-0.12,0.015,-0.06,-0.035,-0.035,-0.035,-0.04,-0.085
0.162,-0.138,-0.06,0.078,0.098,-0.108,0.009,-0.06,-0.035,-0.035,-0.035,-0.04,-0.085
0.164,-0.128,-0.06,0.068,0.094,-0.098,0.003,-0.06,-0.036,-0.035,-0.035,-0.04,-0.085
0.166,-0.121,-0.06,0.061,0.09,-0.091,0.001,-0.06,-0.033,-0.035,-0.035,-0.04,-0.085
0.168,-0.113,-0.06,0.053,0.086,-0.083,-0.003,-0.061,-0.03,-0.035,-0.035,-0.041,-0.085
0.17,-0.105,-0.06,0.045,0.082,-0.075,-0.007,-0.065,-0.03,-0.035,-0.035,-0.045,-0.085
0.172,-0.1,-0.062,0.038,0.081,-0.069,-0.012,-0.065,-0.03,-0.035,-0.035,-0.045,-0.081
0.174,-0.104,-0.079,0.025,0.091,-0.064,-0.027,-0.065,-0.03,-0.035,-0.036,-0.045,-0.08
0.176,-0.119,-0.084,0.035,0.101,-0.077,-0.024,-0.065,-0.03,-0.035,-0.033,-0.045,-0.08
0.178,-0.149,-0.072,0.077,0.11,-0.113,0.002,-0.065,-0.029,-0.035,-0.03,-0.045,-0.08
0.18,-0.18,-0.065,0.115,0.122,-0.147,0.025,-0.065,-0.025,-0.035,-0.03,-0.045,-0.08
0.182,-0.174,-0.061,0.112,0.117,-0.143,0.026,-0.065,-0.025,-0.035,-0.03,-0.049,-0.08
0.184,-0.163,-0.054,0.109,0.109,-0.136,0.027,-0.066,-0.025,-0.035,-0.027,-0.05,-0.08
0.186,-0.156,-0.046,0.11,0.101,-0.133,0.032,-0.06,-0.025,-0.035,-0.025,-0.05,-0.08
0.188,-0.148,-0.038,0.11,0.093,-0.129,0.036,-0.047,-0.026,-0.035,-0.025,-0.05,-0.08
0.19,-0.145,-0.035,0.11,0.09,-0.127,0.037,-0.035,-0.025,-0.035,-0.025,-0.05,-0.08
0.192,-0.159,-0.049,0.11,0.104,-0.134,0.03,-0.022,-0.006,-0.035,-0.03,-0.051,-0.079
0.194,-0.185,-0.075,0.11,0.13,-0.147,0.017,-0.015,0.017,-0.033,-0.03,-0.046,-0.091
0.196,-0.214,-0.104,0.11,0.159,-0.162,0.003,-0.003,0.03,-0.04,-0.048,-0.063,-0.123
0.198,-0.215,-0.105,0.11,0.16,-0.162,0.002,0.013,0.055,-0.026,-0.056,-0.079,-0.14
0.2,-0.175,-0.065,0.11,0.12,-0.142,0.022,0.025,0.115,0.03,-0.015,-0.055,-0.12
0.202,-0.145,-0.034,0.111,0.089,-0.127,0.038,0.043,0.176,0.078,0.017,-0.037,-0.105
0.204,-0.096,0.009,0.105,0.043,-0.101,0.057,0.072,0.232,0.135,0.057,0.004,-0.077
0.206,-0.068,0.06,0.127,0.004,-0.098,0.093,0.078,0.287,0.206,0.118,0.052,-0.044
0.208,-0.043,0.107,0.15,-0.032,-0.097,0.128,0.07,0.337,0.286,0.195,0.107,-0.011
0.21,0.015,0.145,0.13,-0.08,-0.058,0.137,0.065,0.38,0.37,0.275,0.18,0.03
0.212,0.041,0.165,0.124,-0.104,-0.042,0.145,0.018,0.404,0.429,0.344,0.236,0.069
0.214,0.168,0.222,0.054,-0.195,0.057,0.138,-0.025,0.357,0.468,0.406,0.298,0.118
0.216,0.278,0.262,-0.016,-0.27,0.147,0.123,-0.087,0.289,0.502,0.462,0.358,0.172
0.218,0.307,0.267,-0.041,-0.287,0.174,0.113,-0.177,0.219,0.512,0.503,0.406,0.221
0.22,0.365,0.285,-0.08,-0.325,0.222,0.102,-0.26,0.11,0.48,0.52,0.45,0.265
0.222,0.466,0.322,-0.144,-0.393,0.304,0.089,-0.334,-0.01,0.456,0.519,0.494,0.32
0.224,0.543,0.383,-0.16,-0.463,0.351,0.111,-0.395,-0.131,0.418,0.527,0.533,0.377
0.226,0.546,0.421,-0.125,-0.483,0.336,0.147,-0.457,-0.299,0.321,0.491,0.547,0.416
0.228,0.524,0.364,-0.16,-0.443,0.342,0.101,-0.528,-0.514,0.125,0.347,0.482,0.416
0.23,0.49,0.24,-0.25,-0.365,0.37,-0.005,-0.6,-0.755,-0.13,0.145,0.355,0.38
0.232,0.32,0.196,-0.125,-0.258,0.222,0.035,-0.657,-1.067,-0.303,0.035,0.31,0.346
0.234,0.21,0.163,-0.047,-0.186,0.128,0.058,-0.704,-1.306,-0.418,-0.047,0.279,0.331
0.236,0.142,0.117,-0.025,-0.129,0.083,0.046,-0.713,-1.398,-0.49,-0.117,0.228,0.329
0.238,0.054,0.067,0.013,-0.061,0.021,0.039,-0.698,-1.388,-0.536,-0.176,0.171,0.313
0.24,-0.005,0.02,0.025,-0.008,-0.015,0.022,-0.69,-1.335,-0.57,-0.235,0.12,0.275
0.242,-0.012,0.002,0.014,0.005,-0.013,0.008,-0.651,-1.239,-0.567,-0.269,0.076,0.243
0.244,-0.006,-0.006,0.0,0.006,-0.003,-0.002,-0.612,-1.155,-0.565,-0.29,0.031,0.209
0.246,-0.037,-0.047,-0.01,0.042,-0.013,-0.028,-0.578,-1.083,-0.543,-0.293,0.008,0.171
0.248,-0.066,-0.09,-0.024,0.078,-0.021,-0.056,-0.548,-0.996,-0.509,-0.284,0.004,0.138
0.25,-0.05,-0.08,-0.03,0.065,-0.01,-0.055,-0.515,-0.875,-0.475,-0.275,-0.005,0.115
0.252,-0.07,-0.075,-0.005,0.072,-0.032,-0.04,-0.452,-0.712,-0.373,-0.237,-0.014,0.091
0.254,-0.108,-0.076,0.032,0.091,-0.069,-0.021,-0.388,-0.592,-0.308,-0.192,-0.017,0.067
0.256,-0.108,-0.073,0.035,0.091,-0.072,-0.018,-0.332,-0.509,-0.267,-0.164,-0.027,0.042
0.258,-0.114,-0.07,0.044,0.091,-0.079,-0.012,-0.275,-0.422,-0.22,-0.152,-0.052,0.02
0.26,-0.165,-0.07,0.095,0.117,-0.13,0.012,-0.22,-0.335,-0.19,-0.14,-0.075,0.005
0.262,-0.156,-0.066,0.09,0.111,-0.123,0.012,-0.183,-0.274,-0.158,-0.124,-0.072,-0.011
0.264,-0.139,-0.061,0.077,0.1,-0.108,0.008,-0.148,-0.217,-0.126,-0.11,-0.069,-0.027
0.266,-0.131,-0.06,0.072,0.095,-0.102,0.005,-0.114,-0.167,-0.092,-0.101,-0.07,-0.044
0.268,-0.123,-0.06,0.063,0.091,-0.093,0.001,-0.082,-0.123,-0.065,-0.093,-0.07,-0.057
0.27,-0.11,-0.055,0.055,0.082,-0.082,0.0,-0.055,-0.08,-0.055,-0.085,-0.07,-0.06
0.272,-0.099,-0.052,0.047,0.075,-0.072,-0.002,-0.046,-0.066,-0.047,-0.081,-0.066,-0.059
0.274,-0.116,-0.076,0.039,0.096,-0.077,-0.018,-0.042,-0.06,-0.036,-0.075,-0.065,-0.066
0.276,-0.127,-0.08,0.047,0.103,-0.087,-0.016,-0.038,-0.049,-0.025,-0.066,-0.065,-0.071
0.278,-0.154,-0.091,0.063,0.122,-0.108,-0.014,-0.034,-0.038,-0.019,-0.059,-0.065,-0.079
0.28,-0.21,-0.145,0.065,0.177,-0.137,-0.04,-0.03,-0.03,-0.015,-0.055,-0.065,-0.095
0.282,-0.175,-0.11,0.065,0.142,-0.119,-0.023,-0.026,-0.022,-0.011,-0.051,-0.065,-0.092
0.284,-0.126,-0.061,0.065,0.093,-0.095,0.002,-0.022,-0.014,-0.007,-0.047,-0.062,-0.089
0.286,-0.114,-0.049,0.065,0.081,-0.089,0.008,-0.018,-0.006,-0.003,-0.043,-0.059,-0.09
0.288,-0.121,-0.056,0.065,0.088,-0.093,0.005,-0.015,0.002,0.001,-0.04,-0.06,-0.09
0.29,-0.12,-0.055,0.065,0.087,-0.092,0.005,-0.015,0.01,0.005,-0.04,-0.06,-0.09
0.292,-0.118,-0.055,0.063,0.086,-0.09,0.004,-0.015,0.018,0.01,-0.036,-0.06,-0.09
0.294,-0.135,-0.055,0.08,0.095,-0.107,0.012,-0.015,0.026,0.007,-0.031,-0.057,-0.09
0.296,-0.151,-0.056,0.095,0.103,-0.122,0.019,-0.015,0.033,0.004,-0.03,-0.054,-0.09
0.298,-0.175,-0.08,0.095,0.127,-0.135,0.007,-0.014,0.035,0.005,-0.029,-0.055,-0.089
0.3,-0.215,-0.12,0.095,0.167,-0.155,-0.012,-0.01,0.035,0.005,-0.025,-0.055,-0.085
0.302,-0.205,-0.11,0.095,0.157,-0.15,-0.007,-0.01,0.035,0.005,-0.02,-0.055,-0.085
0.304,-0.192,-0.097,0.095,0.144,-0.143,-0.001,-0.01,0.038,0.005,-0.02,-0.056,-0.085
0.306,-0.187,-0.092,0.095,0.139,-0.14,0.002,-0.01,0.041,0.005,-0.018,-0.053,-0.085
0.308,-0.177,-0.082,0.095,0.129,-0.136,0.006,-0.01,0.04,0.005,-0.015,-0.05,-0.085
0.31,-0.165,-0.07,0.095,0.117,-0.13,0.012,-0.01,0.04,0.005,-0.015,-0.05,-0.085
0.312,-0.157,-0.062,0.095,0.109,-0.126,0.016,-0.01,0.044,0.005,-0.015,-0.05,-0.085
0.314,-0.148,-0.053,0.095,0.1,-0.121,0.021,-0.007,0.045,0.005,-0.015,-0.047,-0.086
0.316,-0.146,-0.051,0.095,0.098,-0.12,0.021,-0.004,0.045,0.005,-0.015,-0.045,-0.083
0.318,-0.151,-0.056,0.096,0.103,-0.123,0.02,-0.005,0.045,0.005,-0.015,-0.045,-0.08
0.32,-0.15,-0.055,0.095,0.102,-0.122,0.02,-0.005,0.045,0.005,-0.015,-0.045,-0.08
0.322,-0.139,-0.056,0.083,0.097,-0.11,0.013,-0.005,0.045,0.005,-0.015,-0.045,-0.08
0.324,-0.126,-0.051,0.075,0.089,-0.1,0.011,-0.006,0.045,0.005,-0.012,-0.042,-0.08
0.326,-0.13,-0.069,0.061,0.099,-0.095,-0.004,-0.003,0.045,0.005,-0.009,-0.039,-0.08
0.328,-0.115,-0.092,0.022,0.103,-0.068,-0.034,0.0,0.045,0.006,-0.01,-0.04,-0.08
0.33,-0.09,-0.085,0.005,0.087,-0.047,-0.04,0.0,0.045,0.01,-0.01,-0.04,-0.08
0.332,-0.182,-0.084,0.098,0.133,-0.139,0.007,0.0,0.053,0.014,-0.01,-0.04,-0.08
0.334,-0.196,-0.086,0.11,0.14,-0.152,0.012,0.0,0.056,0.018,-0.01,-0.037,-0.081
0.336,-0.149,-0.083,0.066,0.116,-0.107,-0.009,0.0,0.055,0.021,-0.01,-0.034,-0.078
0.338,-0.144,-0.08,0.065,0.112,-0.105,-0.007,0.0,0.055,0.019,-0.01,-0.035,-0.075
0.34,-0.17,-0.08,0.09,0.125,-0.13,0.005,0.0,0.055,0.015,-0.01,-0.035,-0.075
0.342,-0.156,-0.08,0.076,0.118,-0.116,-0.002,0.004,0.055,0.011,-0.006,-0.031,-0.075
0.344,-0.138,-0.081,0.057,0.109,-0.098,-0.012,0.009,0.055,0.01,-0.005,-0.03,-0.075
0.346,-0.119,-0.078,0.041,0.098,-0.079,-0.019,0.01,0.055,0.008,-0.005,-0.03,-0.075
0.348,-0.086,-0.075,0.011,0.08,-0.048,-0.031,0.011,0.055,0.005,-0.005,-0.03,-0.075
0.35,-0.065,-0.075,-0.01,0.07,-0.027,-0.042,0.015,0.055,0.005,-0.005,-0.03,-0.075
0.352,-0.101,-0.075,0.026,0.088,-0.063,-0.024,0.019,0.055,0.001,-0.005,-0.026,-0.075
0.354,-0.152,-0.075,0.077,0.114,-0.114,0.0,0.021,0.056,-0.004,-0.005,-0.024,-0.075
0.356,-0.164,-0.073,0.091,0.118,-0.127,0.008,0.018,0.053,-0.005,-0.006,-0.026,-0.076
0.358,-0.146,-0.07,0.077,0.108,-0.112,0.004,0.014,0.059,-0.006,-0.004,-0.023,-0.074
0.36,-0.14,-0.07,0.07,0.105,-0.105,0.0,0.01,0.08,-0.01,-0.005,-0.025,-0.075
0.362,-0.133,-0.07,0.062,0.102,-0.098,-0.004,0.01,0.077,-0.011,-0.031,-0.055,-0.096
0.364,-0.12,-0.067,0.053,0.094,-0.087,-0.006,0.007,0.074,-0.007,-0.034,-0.06,-0.099
0.366,-0.112,-0.065,0.048,0.088,-0.079,-0.008,0.003,0.075,-0.005,-0.029,-0.053,-0.094
0.368,-0.1,-0.065,0.035,0.083,-0.067,-0.015,-0.001,0.075,-0.004,-0.029,-0.056,-0.095
0.37,-0.1,-0.065,0.035,0.082,-0.067,-0.015,0.0,0.075,0.0,-0.025,-0.055,-0.095
0.372,-0.165,-0.065,0.099,0.115,-0.131,0.016,0.008,0.075,0.0,-0.025,-0.051,-0.091
0.374,-0.164,-0.062,0.102,0.113,-0.133,0.02,0.013,0.075,0.003,-0.026,-0.049,-0.089
0.376,-0.12,-0.059,0.061,0.09,-0.09,0.001,0.017,0.075,0.006,-0.023,-0.051,-0.091
0.378,-0.123,-0.06,0.062,0.091,-0.092,0.002,0.021,0.075,0.005,-0.02,-0.049,-0.089
0.38,-0.165,-0.06,0.105,0.112,-0.135,0.022,0.025,0.075,0.005,-0.02,-0.045,-0.085
0.382,-0.163,-0.06,0.103,0.112,-0.133,0.021,0.029,0.075,0.009,-0.02,-0.045,-0.085
0.384,-0.156,-0.057,0.099,0.107,-0.127,0.021,0.03,0.075,0.01,-0.017,-0.046,-0.086
0.386,-0.151,-0.053,0.099,0.102,-0.125,0.022,0.029,0.075,0.012,-0.014,-0.043,-0.083
0.388,-0.144,-0.049,0.094,0.096,-0.119,0.022,0.031,0.075,0.015,-0.015,-0.04,-0.08
0.39,-0.14,-0.045,0.095,0.092,-0.117,0.025,0.035,0.075,0.015,-0.015,-0.04,-0.08
0.392,-0.137,-0.042,0.095,0.089,-0.116,0.027,0.035,0.075,0.019,-0.011,-0.04,-0.08
0.394,-0.159,-0.068,0.092,0.113,-0.125,0.012,0.034,0.075,0.021,-0.009,-0.037,-0.077
0.396,-0.17,-0.081,0.089,0.125,-0.13,0.004,0.037,0.077,0.019,-0.011,-0.034,-0.074
0.398,-0.157,-0.067,0.09,0.112,-0.124,0.012,0.04,0.09,0.021,-0.009,-0.035,-0.075
0.4,-0.15,-0.06,0.09,0.105,-0.12,0.015,0.04,0.11,0.025,-0.005,-0.035,-0.075
0.402,-0.142,-0.056,0.086,0.099,-0.114,0.015,0.04,0.111,0.025,-0.005,-0.031,-0.071
0.404,-0.134,-0.049,0.084,0.091,-0.109,0.018,0.041,0.109,0.028,-0.005,-0.029,-0.069
0.406,-0.126,-0.041,0.086,0.083,-0.105,0.022,0.038,0.11,0.031,-0.005,-0.031,-0.071
0.408,-0.118,-0.033,0.084,0.075,-0.1,0.025,0.035,0.11,0.029,-0.005,-0.029,-0.069
0.41,-0.11,-0.03,0.08,0.07,-0.095,0.025,0.035,0.11,0.025,-0.005,-0.025,-0.065
0.412,-0.11,-0.031,0.079,0.07,-0.095,0.024,0.031,0.11,0.025,-0.005,-0.025,-0.065
0.414,-0.109,-0.027,0.081,0.068,-0.095,0.027,0.03,0.111,0.026,-0.005,-0.025,-0.065
0.416,-0.115,-0.04,0.075,0.077,-0.095,0.017,0.028,0.108,0.023,-0.005,-0.026,-0.065
0.418,-0.118,-0.056,0.062,0.086,-0.09,0.003,0.025,0.114,0.02,-0.005,-0.024,-0.064
0.42,-0.1,-0.045,0.055,0.072,-0.077,0.005,0.025,0.135,0.02,-0.005,-0.015,-0.06
0.422,-0.084,-0.037,0.048,0.06,-0.066,0.006,0.021,0.132,0.02,-0.006,-0.011,-0.056
0.424,-0.064,-0.029,0.035,0.046,-0.049,0.003,0.02,0.129,0.022,0.001,-0.008,-0.052
0.426,-0.049,-0.021,0.028,0.035,-0.038,0.003,0.019,0.129,0.029,0.008,-0.001,-0.048
0.428,-0.026,-0.013,0.013,0.019,-0.019,0.0,0.012,0.123,0.027,0.011,0.006,-0.044
0.43,-0.015,-0.005,0.01,0.01,-0.012,0.002,0.015,0.125,0.02,0.015,0.01,-0.04
0.432,-0.102,0.0,0.102,0.051,-0.102,0.051,0.057,0.162,0.061,0.019,0.014,-0.036
0.434,-0.129,-0.003,0.126,0.066,-0.128,0.062,0.066,0.177,0.078,0.023,0.018,-0.032
0.436,-0.116,-0.005,0.111,0.06,-0.113,0.053,0.058,0.174,0.074,0.027,0.021,-0.029
0.438,-0.121,-0.006,0.116,0.063,-0.118,0.055,0.06,0.175,0.075,0.031,0.02,-0.03
0.44,-0.125,-0.01,0.115,0.067,-0.12,0.052,0.06,0.175,0.075,0.035,0.02,-0.03
0.442,-0.125,-0.01,0.115,0.067,-0.12,0.052,0.06,0.175,0.079,0.035,0.024,-0.026
0.444,-0.123,-0.011,0.112,0.067,-0.117,0.05,0.06,0.176,0.081,0.036,0.026,-0.024
0.446,-0.129,-0.02,0.109,0.075,-0.119,0.044,0.06,0.173,0.079,0.033,0.024,-0.026
0.448,-0.116,-0.006,0.11,0.061,-0.113,0.051,0.06,0.179,0.081,0.039,0.026,-0.024
0.45,-0.08,0.03,0.11,0.025,-0.095,0.07,0.06,0.2,0.085,0.055,0.03,-0.02
0.452,-0.105,0.006,0.11,0.049,-0.107,0.058,0.06,0.197,0.085,0.048,0.03,-0.02
0.454,-0.137,-0.03,0.107,0.084,-0.122,0.038,0.06,0.194,0.086,0.04,0.031,-0.02
0.456,-0.13,-0.026,0.104,0.078,-0.117,0.039,0.06,0.198,0.082,0.043,0.027,-0.021
0.458,-0.097,0.008,0.105,0.044,-0.101,0.056,0.06,0.218,0.092,0.061,0.036,-0.018
0.46,-0.07,0.035,0.105,0.017,-0.088,0.07,0.06,0.25,0.125,0.085,0.065,-0.005
0.462,-0.048,0.057,0.105,-0.005,-0.076,0.08,0.056,0.247,0.127,0.091,0.067,0.003
0.464,-0.043,0.062,0.106,-0.01,-0.075,0.084,0.055,0.244,0.124,0.087,0.062,0.011
0.466,-0.03,0.073,0.103,-0.022,-0.067,0.088,0.055,0.244,0.126,0.099,0.072,0.019
0.468,-0.013,0.086,0.1,-0.036,-0.057,0.092,0.055,0.238,0.124,0.118,0.088,0.027
0.47,-0.02,0.08,0.1,-0.03,-0.06,0.09,0.055,0.24,0.125,0.12,0.095,0.035
0.472,-0.025,0.075,0.1,-0.025,-0.063,0.087,0.055,0.266,0.145,0.124,0.099,0.043
0.474,-0.025,0.075,0.101,-0.025,-0.064,0.087,0.055,0.269,0.155,0.129,0.106,0.049
0.476,-0.024,0.074,0.098,-0.025,-0.062,0.085,0.055,0.264,0.154,0.13,0.113,0.05
0.478,-0.026,0.068,0.095,-0.022,-0.06,0.081,0.055,0.265,0.156,0.131,0.116,0.05
0.48,-0.03,0.065,0.095,-0.018,-0.063,0.08,0.055,0.265,0.16,0.135,0.12,0.055
0.482,-0.029,0.067,0.095,-0.019,-0.063,0.081,0.055,0.265,0.16,0.134,0.124,0.063
0.484,-0.038,0.056,0.094,-0.009,-0.066,0.074,0.055,0.266,0.163,0.141,0.129,0.068
0.486,-0.017,0.081,0.099,-0.032,-0.058,0.089,0.054,0.263,0.166,0.148,0.13,0.074
0.488,0.021,0.109,0.088,-0.066,-0.033,0.098,0.056,0.26,0.164,0.151,0.131,0.081
0.49,0.03,0.095,0.065,-0.063,-0.018,0.08,0.065,0.26,0.165,0.16,0.145,0.085
0.492,0.039,0.144,0.106,-0.092,-0.034,0.125,0.07,0.26,0.186,0.178,0.166,0.106
0.494,0.041,0.158,0.117,-0.1,-0.038,0.137,0.064,0.26,0.19,0.178,0.174,0.115
0.496,0.055,0.148,0.092,-0.102,-0.018,0.12,0.057,0.261,0.182,0.174,0.177,0.115
0.498,0.034,0.15,0.115,-0.092,-0.041,0.133,0.054,0.259,0.18,0.175,0.18,0.114
0.5,-0.04,0.145,0.185,-0.053,-0.113,0.165,0.05,0.25,0.18,0.175,0.175,0.11
0.502,-0.017,0.145,0.162,-0.064,-0.09,0.153,0.046,0.242,0.176,0.175,0.17,0.11
0.504,0.018,0.146,0.127,-0.082,-0.055,0.136,0.042,0.234,0.175,0.176,0.17,0.11
0.506,0.028,0.143,0.115,-0.086,-0.044,0.129,0.038,0.226,0.174,0.173,0.168,0.11
0.508,0.041,0.14,0.099,-0.091,-0.029,0.119,0.034,0.218,0.169,0.17,0.165,0.11
0.51,0.05,0.14,0.09,-0.095,-0.02,0.115,0.03,0.21,0.165,0.17,0.165,0.11
0.512,0.0,0.136,0.136,-0.069,-0.068,0.136,0.026,0.202,0.165,0.17,0.161,0.106
0.514,-0.013,0.134,0.147,-0.061,-0.081,0.14,0.025,0.191,0.162,0.17,0.156,0.105
0.516,0.0,0.136,0.136,-0.068,-0.069,0.136,0.023,0.181,0.16,0.171,0.155,0.105
0.518,-0.002,0.133,0.134,-0.066,-0.068,0.134,0.02,0.172,0.159,0.168,0.154,0.105
0.52,-0.01,0.12,0.13,-0.055,-0.07,0.125,0.02,0.16,0.15,0.155,0.15,0.105
0.522,-0.014,0.112,0.126,-0.049,-0.07,0.118,0.016,0.152,0.142,0.147,0.151,0.106
0.524,-0.017,0.105,0.122,-0.044,-0.07,0.113,0.011,0.141,0.134,0.14,0.142,0.097
0.526,-0.024,0.094,0.118,-0.035,-0.071,0.106,0.01,0.13,0.126,0.129,0.131,0.085
0.528,-0.031,0.083,0.114,-0.026,-0.073,0.098,0.009,0.123,0.118,0.118,0.122,0.078
0.53,-0.035,0.075,0.11,-0.02,-0.073,0.092,0.005,0.115,0.11,0.11,0.11,0.07
0.532,-0.043,0.067,0.11,-0.012,-0.077,0.088,0.005,0.103,0.106,0.102,0.102,0.058
0.534,-0.05,0.061,0.111,-0.006,-0.08,0.086,0.002,0.094,0.099,0.094,0.091,0.049
0.536,-0.048,0.06,0.108,-0.006,-0.078,0.084,-0.001,0.086,0.093,0.088,0.08,0.041
0.538,-0.045,0.059,0.105,-0.007,-0.075,0.081,0.0,0.078,0.088,0.084,0.073,0.033
0.54,-0.05,0.055,0.105,-0.003,-0.078,0.08,0.0,0.07,0.08,0.08,0.065,0.025
0.542,-0.05,0.055,0.105,-0.003,-0.078,0.08,-0.004,0.066,0.076,0.076,0.057,0.021
0.544,-0.05,0.052,0.102,-0.001,-0.076,0.077,-0.006,0.062,0.069,0.072,0.052,0.014
0.546,-0.049,0.051,0.099,-0.001,-0.074,0.075,-0.004,0.058,0.063,0.068,0.047,0.008
0.548,-0.052,0.048,0.1,0.002,-0.076,0.074,-0.006,0.054,0.058,0.063,0.038,0.003
0.55,-0.065,0.035,0.1,0.015,-0.083,0.067,-0.01,0.05,0.05,0.055,0.03,-0.005
0.552,-0.069,0.027,0.096,0.021,-0.083,0.061,-0.01,0.046,0.046,0.047,0.026,-0.009
0.554,-0.078,0.017,0.094,0.03,-0.086,0.055,-0.009,0.039,0.042,0.039,0.022,-0.013
0.556,-0.092,0.004,0.096,0.044,-0.094,0.049,-0.012,0.03,0.038,0.031,0.018,-0.017
0.558,-0.092,0.002,0.094,0.045,-0.093,0.048,-0.015,0.024,0.034,0.023,0.014,-0.021
0.56,-0.07,0.02,0.09,0.025,-0.08,0.055,-0.015,0.02,0.03,0.015,0.01,-0.025
0.562,-0.053,0.037,0.09,0.008,-0.072,0.063,-0.015,0.012,0.026,0.011,0.006,-0.025
0.564,-0.08,0.01,0.091,0.035,-0.085,0.05,-0.018,0.004,0.022,0.007,0.005,-0.027
0.566,-0.128,-0.04,0.088,0.084,-0.107,0.024,-0.021,-0.003,0.019,0.004,0.004,-0.033
0.568,-0.153,-0.068,0.085,0.11,-0.118,0.008,-0.02,-0.005,0.02,0.005,-0.001,-0.035
0.57,-0.15,-0.065,0.085,0.107,-0.117,0.01,-0.02,-0.005,0.02,0.005,-0.005,-0.035
0.572,-0.149,-0.065,0.085,0.107,-0.117,0.01,-0.024,-0.005,0.016,0.001,-0.009,-0.039
0.574,-0.151,-0.065,0.086,0.108,-0.118,0.01,-0.026,-0.005,0.014,-0.001,-0.014,-0.044
0.576,-0.147,-0.065,0.082,0.105,-0.114,0.008,-0.024,-0.005,0.016,0.001,-0.015,-0.045
0.578,-0.156,-0.065,0.091,0.11,-0.123,0.013,-0.026,-0.005,0.014,-0.001,-0.016,-0.046
0.58,-0.185,-0.065,0.12,0.125,-0.152,0.027,-0.03,-0.005,0.01,-0.005,-0.02,-0.05
0.582,-0.172,-0.065,0.107,0.118,-0.139,0.02,-0.03,-0.004,0.01,-0.005,-0.024,-0.05
0.584,-0.15,-0.065,0.085,0.107,-0.117,0.01,-0.03,-0.01,0.011,-0.004,-0.028,-0.053
0.586,-0.161,-0.065,0.096,0.112,-0.128,0.015,-0.03,-0.02,0.008,-0.007,-0.031,-0.055
0.588,-0.183,-0.065,0.118,0.123,-0.15,0.026,-0.029,-0.025,0.005,-0.01,-0.029,-0.056
0.59,-0.18,-0.065,0.115,0.122,-0.147,0.025,-0.025,-0.02,0.005,-0.01,-0.025,-0.06
0.592,-0.18,-0.066,0.115,0.122,-0.147,0.025,-0.025,-0.02,0.005,-0.01,-0.025,-0.06
0.594,-0.176,-0.06,0.115,0.117,-0.145,0.027,-0.025,-0.02,0.002,-0.013,-0.025,-0.06
0.596,-0.164,-0.049,0.115,0.106,-0.139,0.033,-0.025,-0.02,-0.001,-0.016,-0.025,-0.06
0.598,-0.171,-0.056,0.115,0.113,-0.143,0.029,-0.025,-0.02,0.0,-0.015,-0.025,-0.06
0.6,-0.2,-0.085,0.115,0.142,-0.157,0.015,-0.025,-0.02,0.0,-0.015,-0.03,-0.06
0.602,-0.198,-0.083,0.115,0.14,-0.156,0.016,-0.025,-0.02,-0.004,-0.019,-0.047,-0.06
0.604,-0.191,-0.076,0.115,0.133,-0.153,0.019,-0.025,-0.02,-0.006,-0.021,-0.049,-0.06
0.606,-0.19,-0.075,0.115,0.132,-0.152,0.02,-0.025,-0.02,-0.004,-0.019,-0.044,-0.06
0.608,-0.189,-0.074,0.115,0.131,-0.152,0.02,-0.025,-0.02,-0.006,-0.021,-0.045,-0.06
0.61,-0.185,-0.07,0.115,0.127,-0.15,0.022,-0.025,-0.02,-0.01,-0.025,-0.045,-0.06
0.612,-0.185,-0.07,0.115,0.127,-0.15,0.022,-0.025,-0.02,-0.01,-0.025,-0.045,-0.06
0.614,-0.18,-0.068,0.113,0.124,-0.146,0.022,-0.022,-0.017,-0.01,-0.025,-0.045,-0.063
0.616,-0.17,-0.062,0.107,0.116,-0.138,0.022,-0.02,-0.013,-0.009,-0.024,-0.045,-0.066
0.618,-0.165,-0.06,0.105,0.112,-0.136,0.022,-0.02,-0.018,-0.013,-0.027,-0.045,-0.065
0.62,-0.17,-0.06,0.11,0.115,-0.14,0.025,-0.025,-0.035,-0.03,-0.04,-0.045,-0.065
0.622,-0.166,-0.056,0.11,0.111,-0.138,0.027,-0.047,-0.049,-0.044,-0.045,-0.045,-0.065
0.624,-0.164,-0.055,0.109,0.11,-0.136,0.027,-0.049,-0.048,-0.043,-0.045,-0.045,-0.065
0.626,-0.166,-0.054,0.112,0.11,-0.139,0.028,-0.044,-0.044,-0.039,-0.045,-0.045,-0.065
0.628,-0.181,-0.066,0.115,0.123,-0.148,0.024,-0.044,-0.045,-0.04,-0.045,-0.045,-0.065
0.63,-0.205,-0.09,0.115,0.147,-0.16,0.012,-0.04,-0.045,-0.04,-0.045,-0.045,-0.065
0.632,-0.202,-0.087,0.115,0.144,-0.158,0.014,-0.04,-0.045,-0.04,-0.045,-0.041,-0.065
0.634,-0.196,-0.084,0.112,0.14,-0.153,0.014,-0.041,-0.042,-0.037,-0.045,-0.04,-0.065
0.636,-0.195,-0.085,0.11,0.14,-0.152,0.012,-0.038,-0.039,-0.034,-0.045,-0.04,-0.065
0.638,-0.194,-0.085,0.109,0.14,-0.151,0.012,-0.035,-0.04,-0.035,-0.045,-0.04,-0.065
0.64,-0.19,-0.085,0.105,0.137,-0.147,0.01,-0.035,-0.04,-0.035,-0.045,-0.04,-0.065
0.642,-0.185,-0.081,0.105,0.133,-0.145,0.012,-0.031,-0.04,-0.035,-0.045,-0.04,-0.065
0.644,-0.185,-0.08,0.106,0.132,-0.146,0.012,-0.029,-0.037,-0.032,-0.045,-0.04,-0.065
0.646,-0.183,-0.08,0.103,0.131,-0.143,0.011,-0.031,-0.034,-0.029,-0.045,-0.04,-0.065
0.648,-0.18,-0.08,0.1,0.13,-0.14,0.01,-0.029,-0.035,-0.03,-0.046,-0.04,-0.065
0.65,-0.18,-0.08,0.1,0.13,-0.14,0.01,-0.025,-0.035,-0.03,-0.05,-0.04,-0.065
0.652,-0.171,-0.076,0.095,0.123,-0.133,0.01,-0.025,-0.035,-0.03,-0.05,-0.04,-0.065
0.654,-0.171,-0.075,0.097,0.122,-0.134,0.011,-0.026,-0.036,-0.031,-0.05,-0.04,-0.065
0.656,-0.164,-0.075,0.088,0.119,-0.125,0.007,-0.023,-0.033,-0.028,-0.05,-0.039,-0.065
0.658,-0.183,-0.075,0.108,0.128,-0.145,0.017,-0.02,-0.03,-0.025,-0.05,-0.041,-0.065
0.66,-0.24,-0.075,0.165,0.157,-0.202,0.045,-0.02,-0.03,-0.025,-0.05,-0.045,-0.065
0.662,-0.206,-0.075,0.131,0.14,-0.168,0.028,-0.02,-0.03,-0.025,-0.05,-0.044,-0.065
0.664,-0.15,-0.072,0.078,0.111,-0.114,0.003,-0.021,-0.031,-0.026,-0.05,-0.055,-0.065
0.666,-0.148,-0.069,0.079,0.109,-0.113,0.005,-0.018,-0.028,-0.023,-0.05,-0.06,-0.065
0.668,-0.173,-0.07,0.103,0.122,-0.138,0.017,-0.015,-0.025,-0.02,-0.05,-0.054,-0.064
0.67,-0.17,-0.07,0.1,0.12,-0.135,0.015,-0.015,-0.025,-0.02,-0.05,-0.055,-0.06
0.672,-0.17,-0.07,0.1,0.12,-0.135,0.015,-0.015,-0.025,-0.02,-0.05,-0.056,-0.06
0.674,-0.167,-0.067,0.1,0.117,-0.133,0.016,-0.015,-0.025,-0.02,-0.051,-0.052,-0.06
0.676,-0.164,-0.064,0.1,0.114,-0.132,0.017,-0.013,-0.025,-0.02,-0.048,-0.049,-0.06
0.678,-0.165,-0.065,0.1,0.115,-0.132,0.017,-0.01,-0.024,-0.019,-0.045,-0.05,-0.06
0.68,-0.165,-0.065,0.1,0.115,-0.132,0.017,-0.01,-0.02,-0.015,-0.045,-0.05,-0.06
0.682,-0.165,-0.065,0.1,0.115,-0.132,0.017,-0.01,-0.02,-0.015,-0.045,-0.046,-0.056
0.684,-0.166,-0.066,0.1,0.116,-0.133,0.017,-0.007,-0.021,-0.015,-0.042,-0.044,-0.055
0.686,-0.161,-0.061,0.1,0.111,-0.13,0.019,-0.005,-0.018,-0.015,-0.04,-0.046,-0.055
0.688,-0.154,-0.054,0.1,0.104,-0.126,0.023,-0.005,-0.015,-0.015,-0.04,-0.044,-0.055
0.69,-0.15,-0.05,0.1,0.1,-0.125,0.025,-0.005,-0.015,-0.015,-0.04,-0.04,-0.055
0.692,-0.142,-0.042,0.1,0.092,-0.121,0.029,-0.005,-0.015,-0.015,-0.04,-0.04,-0.055
0.694,-0.136,-0.037,0.099,0.086,-0.117,0.031,-0.002,-0.016,-0.016,-0.037,-0.041,-0.056
0.696,-0.12,-0.031,0.088,0.075,-0.103,0.028,0.001,-0.013,-0.013,-0.034,-0.038,-0.053
0.698,-0.121,-0.023,0.098,0.072,-0.109,0.037,0.0,-0.01,-0.01,-0.035,-0.035,-0.05
0.7,-0.16,-0.02,0.14,0.09,-0.15,0.06,0.0,-0.01,-0.01,-0.035,-0.035,-0.05
0.702,-0.164,-0.029,0.134,0.096,-0.149,0.052,0.0,-0.01,-0.01,-0.035,-0.035,-0.05
0.704,-0.183,-0.06,0.123,0.121,-0.152,0.031,-0.003,-0.01,-0.01,-0.032,-0.032,-0.05
0.706,-0.199,-0.083,0.116,0.141,-0.157,0.016,-0.007,-0.008,-0.01,-0.029,-0.029,-0.05
0.708,-0.193,-0.085,0.108,0.139,-0.15,0.011,-0.011,-0.005,-0.01,-0.03,-0.03,-0.049
0.71,-0.185,-0.085,0.1,0.135,-0.142,0.007,-0.015,-0.005,-0.01,-0.03,-0.03,-0.045
0.712,-0.178,-0.086,0.093,0.132,-0.135,0.003,-0.02,-0.005,-0.01,-0.026,-0.026,-0.045
0.714,-0.161,-0.08,0.081,0.121,-0.121,0.0,-0.017,-0.002,-0.007,-0.025,-0.024,-0.045
0.716,-0.156,-0.07,0.086,0.113,-0.12,0.007,-0.014,0.0,-0.004,-0.025,-0.026,-0.045
0.718,-0.159,-0.064,0.095,0.111,-0.126,0.016,-0.015,0.0,-0.005,-0.025,-0.024,-0.045
0.72,-0.14,-0.055,0.085,0.097,-0.112,0.015,-0.015,0.0,-0.005,-0.025,-0.025,-0.045
0.722,-0.121,-0.041,0.081,0.081,-0.101,0.019,-0.015,0.0,-0.005,-0.021,-0.042,-0.045
0.724,-0.159,-0.082,0.077,0.12,-0.118,-0.003,-0.016,0.003,-0.005,-0.02,-0.044,-0.042
0.726,-0.181,-0.109,0.073,0.145,-0.127,-0.018,-0.013,0.006,-0.005,-0.02,-0.039,-0.039
0.728,-0.16,-0.091,0.069,0.126,-0.114,-0.011,-0.01,0.005,-0.005,-0.02,-0.04,-0.04
0.73,-0.15,-0.085,0.065,0.117,-0.107,-0.01,-0.01,0.005,-0.005,-0.02,-0.04,-0.04
0.732,-0.141,-0.081,0.06,0.111,-0.101,-0.011,-0.01,0.005,-0.005,-0.016,-0.04,-0.04
0.734,-0.138,-0.074,0.064,0.106,-0.101,-0.005,-0.01,0.008,-0.002,-0.015,-0.04,-0.04
0.736,-0.129,-0.066,0.063,0.097,-0.096,-0.001,-0.01,0.012,0.001,-0.015,-0.04,-0.04
0.738,-0.137,-0.058,0.079,0.098,-0.108,0.01,-0.01,0.016,0.0,-0.015,-0.04,-0.04
0.74,-0.17,-0.055,0.115,0.112,-0.142,0.03,-0.01,0.02,0.0,-0.015,-0.04,-0.04
0.742,-0.146,-0.059,0.087,0.102,-0.116,0.013,-0.006,0.025,0.0,-0.015,-0.036,-0.04
0.744,-0.107,-0.061,0.047,0.084,-0.077,-0.007,-0.005,0.022,0.003,-0.015,-0.035,-0.04
0.746,-0.105,-0.059,0.045,0.082,-0.075,-0.007,-0.005,0.019,0.006,-0.015,-0.035,-0.04
0.748,-0.123,-0.061,0.062,0.092,-0.093,0.001,-0.005,0.02,0.005,-0.015,-0.035,-0.04
0.75,-0.125,-0.065,0.06,0.095,-0.092,-0.002,-0.005,0.02,0.005,-0.015,-0.035,-0.04
0.752,-0.123,-0.065,0.058,0.094,-0.09,-0.003,-0.005,0.02,0.005,-0.015,-0.035,-0.036
0.754,-0.136,-0.064,0.072,0.1,-0.104,0.004,-0.002,0.02,0.004,-0.015,-0.035,-0.035
0.756,-0.152,-0.068,0.084,0.11,-0.118,0.008,0.001,0.02,0.007,-0.015,-0.035,-0.035
0.758,-0.162,-0.077,0.085,0.119,-0.123,0.004,0.0,0.02,0.01,-0.015,-0.034,-0.035
0.76,-0.165,-0.08,0.085,0.122,-0.125,0.002,0.0,0.02,0.01,-0.015,-0.03,-0.035
0.762,-0.157,-0.072,0.085,0.114,-0.121,0.006,0.0,0.02,0.01,-0.015,-0.03,-0.035
0.764,-0.151,-0.066,0.085,0.108,-0.118,0.009,-0.001,0.02,0.009,-0.015,-0.03,-0.035
0.766,-0.148,-0.064,0.085,0.105,-0.116,0.01,0.003,0.02,0.013,-0.015,-0.03,-0.035
0.768,-0.144,-0.058,0.086,0.1,-0.115,0.013,-0.005,0.02,0.005,-0.015,-0.03,-0.035
0.77,-0.14,-0.05,0.09,0.095,-0.115,0.02,-0.03,0.02,-0.02,-0.015,-0.03,-0.035
0.772,-0.137,-0.047,0.09,0.092,-0.113,0.021,-0.027,0.02,-0.017,-0.015,-0.03,-0.035
0.774,-0.126,-0.036,0.09,0.081,-0.108,0.027,-0.024,0.02,-0.014,-0.015,-0.03,-0.035
0.776,-0.151,-0.061,0.09,0.106,-0.12,0.015,-0.025,0.02,-0.013,-0.015,-0.03,-0.035
0.778,-0.189,-0.099,0.09,0.144,-0.139,-0.004,-0.025,0.02,-0.009,-0.015,-0.03,-0.036
0.78,-0.18,-0.09,0.09,0.135,-0.135,0.0,-0.025,0.02,-0.01,-0.015,-0.03,-0.04
0.782,-0.171,-0.085,0.086,0.127,-0.128,0.001,-0.025,0.02,-0.011,-0.015,-0.03,-0.04
0.784,-0.168,-0.086,0.082,0.126,-0.124,-0.002,-0.025,0.02,-0.007,-0.014,-0.03,-0.04
0.786,-0.161,-0.083,0.078,0.122,-0.119,-0.002,-0.025,0.02,-0.005,-0.018,-0.03,-0.04
0.788,-0.154,-0.08,0.074,0.116,-0.114,-0.002,-0.025,0.02,-0.004,-0.028,-0.03,-0.04
0.79,-0.15,-0.08,0.07,0.115,-0.11,-0.005,-0.025,0.02,0.0,-0.035,-0.03,-0.04
0.792,-0.142,-0.076,0.066,0.109,-0.103,-0.005,-0.025,0.02,0.0,-0.031,-0.03,-0.04
0.794,-0.136,-0.071,0.064,0.103,-0.1,-0.003,-0.025,0.02,0.001,-0.029,-0.03,-0.04
0.796,-0.136,-0.07,0.067,0.103,-0.102,-0.001,-0.025,0.02,-0.004,-0.03,-0.03,-0.04
0.798,-0.15,-0.07,0.08,0.109,-0.115,0.005,-0.024,0.019,-0.011,-0.03,-0.03,-0.04
0.8,-0.165,-0.065,0.1,0.115,-0.132,0.017,-0.02,0.015,-0.015,-0.03,-0.03,-0.04
0.802,-0.155,-0.062,0.093,0.109,-0.124,0.015,-0.02,0.015,-0.023,-0.026,-0.027,-0.04
0.804,-0.169,-0.083,0.086,0.126,-0.127,0.001,-0.02,0.016,-0.029,-0.025,-0.049,-0.039
0.806,-0.184,-0.1,0.084,0.142,-0.134,-0.008,-0.02,0.013,-0.03,-0.025,-0.061,-0.042
0.808,-0.178,-0.1,0.078,0.139,-0.128,-0.011,-0.02,0.01,-0.03,-0.025,-0.054,-0.045
0.81,-0.17,-0.1,0.07,0.135,-0.12,-0.015,-0.02,0.01,-0.03,-0.025,-0.055,-0.045
0.812,-0.166,-0.1,0.066,0.132,-0.116,-0.017,-0.02,0.01,-0.03,-0.021,-0.055,-0.045
0.814,-0.162,-0.1,0.062,0.131,-0.112,-0.019,-0.02,0.011,-0.03,-0.02,-0.055,-0.045
0.816,-0.158,-0.1,0.058,0.129,-0.108,-0.021,-0.02,0.008,-0.03,-0.02,-0.055,-0.045
0.818,-0.154,-0.1,0.054,0.127,-0.104,-0.023,-0.02,0.005,-0.03,-0.02,-0.055,-0.045
0.82,-0.15,-0.1,0.05,0.125,-0.1,-0.025,-0.02,0.005,-0.03,-0.02,-0.055,-0.045
0.822,-0.146,-0.1,0.046,0.122,-0.096,-0.026,-0.02,0.005,-0.03,-0.02,-0.055,-0.045
0.824,-0.145,-0.103,0.042,0.124,-0.093,-0.03,-0.019,0.005,-0.03,-0.017,-0.055,-0.045
0.826,-0.144,-0.106,0.039,0.125,-0.091,-0.033,-0.022,0.003,-0.03,-0.014,-0.055,-0.045
0.828,-0.137,-0.105,0.032,0.121,-0.084,-0.036,-0.025,0.0,-0.03,-0.015,-0.055,-0.045
0.83,-0.135,-0.105,0.03,0.12,-0.082,-0.037,-0.025,0.0,-0.03,-0.015,-0.055,-0.045
0.832,-0.164,-0.105,0.059,0.134,-0.111,-0.023,-0.025,0.0,-0.03,-0.015,-0.055,-0.045
0.834,-0.176,-0.105,0.071,0.14,-0.123,-0.017,-0.024,-0.003,-0.03,-0.012,-0.052,-0.042
0.836,-0.174,-0.105,0.069,0.14,-0.121,-0.017,-0.027,-0.005,-0.03,-0.009,-0.049,-0.039
0.838,-0.175,-0.105,0.07,0.14,-0.122,-0.017,-0.03,-0.005,-0.03,-0.01,-0.05,-0.04
0.84,-0.175,-0.105,0.07,0.14,-0.122,-0.017,-0.03,-0.005,-0.03,-0.01,-0.05,-0.04
0.842,-0.171,-0.101,0.07,0.136,-0.12,-0.015,-0.03,-0.005,-0.03,-0.01,-0.05,-0.04
0.844,-0.17,-0.1,0.07,0.135,-0.12,-0.015,-0.03,-0.008,-0.03,-0.01,-0.05,-0.04
0.846,-0.17,-0.1,0.07,0.135,-0.12,-0.015,-0.03,-0.011,-0.03,-0.011,-0.05,-0.04
0.848,-0.17,-0.1,0.07,0.135,-0.12,-0.015,-0.031,-0.01,-0.03,-0.016,-0.05,-0.04
0.85,-0.17,-0.1,0.07,0.135,-0.12,-0.015,-0.035,-0.01,-0.03,-0.02,-0.05,-0.04
0.852,-0.166,-0.096,0.07,0.131,-0.118,-0.012,-0.035,-0.01,-0.03,-0.02,-0.05,-0.036
0.854,-0.164,-0.095,0.069,0.129,-0.116,-0.012,-0.035,-0.012,-0.03,-0.023,-0.05,-0.035
0.856,-0.167,-0.095,0.072,0.131,-0.119,-0.011,-0.035,-0.018,-0.03,-0.025,-0.05,-0.035
0.858,-0.17,-0.095,0.075,0.132,-0.122,-0.01,-0.035,-0.019,-0.03,-0.025,-0.05,-0.035
0.86,-0.17,-0.095,0.075,0.132,-0.122,-0.01,-0.035,-0.015,-0.03,-0.03,-0.05,-0.035
0.862,-0.17,-0.095,0.075,0.132,-0.122,-0.01,-0.031,-0.015,-0.026,-0.035,-0.046,-0.035
0.864,-0.167,-0.092,0.075,0.129,-0.121,-0.008,-0.03,-0.015,-0.025,-0.035,-0.045,-0.035
0.866,-0.164,-0.089,0.075,0.126,-0.12,-0.007,-0.03,-0.015,-0.025,-0.037,-0.045,-0.035
0.868,-0.165,-0.09,0.075,0.127,-0.12,-0.007,-0.03,-0.015,-0.025,-0.041,-0.045,-0.034
0.87,-0.165,-0.09,0.075,0.127,-0.12,-0.007,-0.03,-0.015,-0.025,-0.04,-0.045,-0.03
0.872,-0.165,-0.09,0.075,0.127,-0.12,-0.007,-0.03,-0.015,-0.025,-0.036,-0.045,-0.03
0.874,-0.166,-0.091,0.075,0.128,-0.12,-0.007,-0.03,-0.016,-0.022,-0.035,-0.045,-0.03
0.876,-0.163,-0.088,0.075,0.125,-0.119,-0.006,-0.03,-0.013,-0.019,-0.035,-0.045,-0.03
0.878,-0.16,-0.085,0.075,0.122,-0.117,-0.005,-0.029,-0.01,-0.02,-0.035,-0.045,-0.03
0.88,-0.16,-0.085,0.075,0.122,-0.117,-0.005,-0.025,-0.01,-0.02,-0.035,-0.045,-0.03
0.882,-0.16,-0.085,0.075,0.122,-0.117,-0.005,-0.025,-0.01,-0.02,-0.035,-0.045,-0.03
0.884,-0.157,-0.082,0.075,0.119,-0.116,-0.003,-0.025,-0.01,-0.02,-0.035,-0.045,-0.03
0.886,-0.154,-0.079,0.075,0.116,-0.115,-0.002,-0.025,-0.01,-0.02,-0.035,-0.045,-0.03
0.888,-0.155,-0.08,0.075,0.117,-0.115,-0.002,-0.025,-0.01,-0.019,-0.035,-0.044,-0.031
0.89,-0.155,-0.08,0.075,0.117,-0.115,-0.002,-0.025,-0.01,-0.015,-0.035,-0.04,-0.035
0.892,-0.152,-0.076,0.076,0.113,-0.113,0.0,-0.025,-0.01,-0.015,-0.035,-0.04,-0.04
0.894,-0.144,-0.074,0.069,0.108,-0.106,-0.003,-0.026,-0.007,-0.015,-0.035,-0.04,-0.037
0.896,-0.138,-0.076,0.062,0.106,-0.1,-0.006,-0.023,-0.004,-0.015,-0.035,-0.04,-0.034
0.898,-0.133,-0.074,0.059,0.104,-0.096,-0.007,-0.02,-0.005,-0.015,-0.035,-0.04,-0.035
0.9,-0.125,-0.07,0.055,0.097,-0.09,-0.007,-0.02,-0.005,-0.015,-0.035,-0.04,-0.035
0.902,-0.121,-0.07,0.051,0.095,-0.086,-0.009,-0.02,-0.005,-0.011,-0.035,-0.04,-0.035
0.904,-0.117,-0.071,0.047,0.094,-0.082,-0.012,-0.02,-0.005,-0.01,-0.035,-0.04,-0.036
0.906,-0.112,-0.068,0.044,0.09,-0.078,-0.011,-0.02,-0.005,-0.01,-0.035,-0.04,-0.033
0.908,-0.101,-0.065,0.036,0.083,-0.068,-0.014,-0.02,-0.005,-0.01,-0.035,-0.04,-0.03
0.91,-0.095,-0.065,0.03,0.08,-0.062,-0.017,-0.02,-0.005,-0.01,-0.035,-0.04,-0.03
0.912,-0.125,-0.065,0.059,0.095,-0.092,-0.003,-0.02,-0.005,-0.01,-0.035,-0.04,-0.03
0.914,-0.127,-0.062,0.065,0.094,-0.096,0.002,-0.02,-0.005,-0.009,-0.035,-0.041,-0.03
0.916,-0.118,-0.059,0.059,0.089,-0.089,0.0,-0.02,-0.005,-0.013,-0.035,-0.038,-0.03
0.918,-0.12,-0.06,0.06,0.09,-0.09,0.0,-0.02,-0.005,-0.022,-0.035,-0.035,-0.03
0.92,-0.115,-0.06,0.055,0.087,-0.085,-0.002,-0.02,-0.005,-0.025,-0.035,-0.035,-0.03
0.922,-0.115,-0.06,0.055,0.087,-0.085,-0.002,-0.02,-0.003,-0.029,-0.035,-0.035,-0.026
0.924,-0.116,-0.06,0.056,0.087,-0.086,-0.002,-0.02,-0.018,-0.034,-0.036,-0.035,-0.025
0.926,-0.113,-0.06,0.053,0.086,-0.083,-0.003,-0.02,-0.025,-0.034,-0.033,-0.035,-0.025
0.928,-0.11,-0.06,0.05,0.085,-0.08,-0.005,-0.02,-0.019,-0.029,-0.03,-0.035,-0.025
0.93,-0.11,-0.06,0.05,0.085,-0.08,-0.005,-0.02,-0.02,-0.03,-0.03,-0.035,-0.025
0.932,-0.106,-0.06,0.046,0.083,-0.076,-0.007,-0.02,-0.02,-0.031,-0.03,-0.035,-0.025
0.934,-0.105,-0.059,0.046,0.081,-0.075,-0.006,-0.02,-0.02,-0.027,-0.03,-0.035,-0.022
0.936,-0.105,-0.064,0.041,0.084,-0.073,-0.011,-0.02,-0.02,-0.025,-0.03,-0.035,-0.019
0.938,-0.124,-0.071,0.053,0.097,-0.088,-0.008,-0.02,-0.019,-0.025,-0.03,-0.035,-0.02
0.94,-0.165,-0.075,0.09,0.12,-0.127,0.007,-0.02,-0.015,-0.025,-0.03,-0.035,-0.02
0.942,-0.173,-0.096,0.076,0.135,-0.125,-0.01,-0.02,-0.015,-0.025,-0.03,-0.035,-0.02
0.944,-0.157,-0.099,0.058,0.128,-0.107,-0.02,-0.02,-0.015,-0.022,-0.03,-0.035,-0.021
0.946,-0.149,-0.094,0.054,0.121,-0.101,-0.02,-0.02,-0.015,-0.019,-0.03,-0.035,-0.018
0.948,-0.15,-0.094,0.055,0.121,-0.102,-0.02,-0.02,-0.015,-0.02,-0.03,-0.035,-0.024
0.95,-0.145,-0.09,0.055,0.117,-0.1,-0.017,-0.02,-0.015,-0.02,-0.03,-0.035,-0.04
0.952,-0.145,-0.09,0.055,0.117,-0.1,-0.017,-0.02,-0.015,-0.02,-0.03,-0.035,-0.037
0.954,-0.142,-0.087,0.055,0.114,-0.098,-0.016,-0.02,-0.012,-0.017,-0.027,-0.035,-0.034
0.956,-0.14,-0.085,0.055,0.112,-0.097,-0.015,-0.02,-0.009,-0.014,-0.024,-0.035,-0.036
0.958,-0.139,-0.084,0.055,0.111,-0.097,-0.014,-0.02,-0.01,-0.015,-0.025,-0.035,-0.034
0.96,-0.135,-0.08,0.055,0.107,-0.095,-0.012,-0.02,-0.01,-0.015,-0.025,-0.035,-0.03
0.962,-0.131,-0.08,0.051,0.105,-0.091,-0.015,-0.02,-0.01,-0.011,-0.025,-0.035,-0.03
0.964,-0.127,-0.077,0.049,0.102,-0.088,-0.014,-0.02,-0.011,-0.01,-0.025,-0.035,-0.031
0.966,-0.124,-0.073,0.051,0.099,-0.087,-0.011,-0.02,-0.008,-0.01,-0.025,-0.035,-0.028
0.968,-0.126,-0.077,0.049,0.102,-0.087,-0.014,-0.02,-0.005,-0.01,-0.025,-0.035,-0.025
0.97,-0.13,-0.085,0.045,0.107,-0.087,-0.02,-0.02,-0.005,-0.01,-0.025,-0.035,-0.025
0.972,-0.122,-0.077,0.045,0.099,-0.083,-0.016,-0.016,-0.005,-0.006,-0.025,-0.031,-0.025
0.974,-0.116,-0.071,0.045,0.093,-0.081,-0.013,-0.015,-0.005,-0.005,-0.025,-0.03,-0.022
0.976,-0.114,-0.069,0.045,0.091,-0.079,-0.011,-0.013,-0.005,-0.005,-0.025,-0.028,-0.019
0.978,-0.126,-0.063,0.063,0.094,-0.094,0.0,-0.009,-0.005,-0.005,-0.025,-0.025,-0.02
0.98,-0.15,-0.055,0.095,0.102,-0.122,0.02,-0.01,-0.005,-0.005,-0.025,-0.025,-0.02
0.982,-0.136,-0.052,0.085,0.094,-0.111,0.017,-0.011,-0.001,-0.001,-0.021,-0.021,-0.016
0.984,-0.115,-0.043,0.072,0.079,-0.094,0.014,-0.007,0.0,0.001,-0.017,-0.019,-0.014
0.986,-0.124,-0.057,0.068,0.09,-0.096,0.005,-0.005,0.002,-0.001,-0.013,-0.021,-0.016
0.988,-0.141,-0.076,0.065,0.108,-0.102,-0.006,-0.004,0.005,0.001,-0.01,-0.019,-0.014
0.99,-0.13,-0.065,0.065,0.097,-0.097,0.0,0.0,0.005,0.005,-0.01,-0.015,-0.01
0.992,-0.122,-0.057,0.065,0.089,-0.093,0.004,0.0,0.009,0.005,-0.006,-0.015,-0.01
0.994,-0.113,-0.049,0.065,0.08,-0.089,0.008,-0.001,0.01,0.005,-0.001,-0.012,-0.011
0.996,-0.108,-0.043,0.065,0.075,-0.086,0.011,0.002,0.012,0.005,0.0,-0.01,-0.008
0.998,-0.094,-0.029,0.065,0.061,-0.079,0.018,0.005,0.015,0.006,0.001,-0.009,-0.005
1.0,-0.055,0.01,0.065,0.022,-0.06,0.037,0.005,0.015,0.01,0.005,-0.005,-0.005
1.002,-0.019,0.046,0.066,-0.014,-0.042,0.055,0.009,0.019,0.01,0.01,-0.005,-0.001
1.004,-0.018,0.044,0.062,-0.014,-0.04,0.053,0.011,0.02,0.009,0.01,-0.006,0.0
1.006,-0.046,0.029,0.075,0.008,-0.061,0.052,0.009,0.022,0.012,0.012,-0.003,0.002
1.008,-0.068,0.024,0.091,0.022,-0.08,0.057,0.011,0.025,0.015,0.015,0.0,0.005
1.01,-0.07,0.015,0.085,0.027,-0.078,0.05,0.015,0.025,0.015,0.015,0.0,0.005
1.012,-0.082,0.003,0.084,0.039,-0.083,0.043,0.015,0.029,0.015,0.015,0.0,0.009
1.014,-0.092,-0.006,0.086,0.048,-0.089,0.039,0.016,0.03,0.014,0.015,0.003,0.01
1.016,-0.098,-0.015,0.083,0.056,-0.091,0.034,0.012,0.03,0.017,0.015,0.006,0.012
1.018,-0.099,-0.02,0.08,0.06,-0.089,0.03,0.003,0.03,0.02,0.015,0.005,0.015
1.02,-0.095,-0.015,0.08,0.055,-0.087,0.032,-0.005,0.03,0.02,0.015,0.005,0.015
1.022,-0.096,-0.015,0.08,0.055,-0.087,0.032,-0.013,0.03,0.02,0.015,0.009,0.019
1.024,-0.089,-0.012,0.077,0.05,-0.083,0.032,-0.021,0.03,0.021,0.015,0.01,0.02
1.026,-0.084,-0.009,0.074,0.046,-0.079,0.032,-0.029,0.03,0.018,0.015,0.01,0.022
1.028,-0.085,-0.01,0.075,0.047,-0.08,0.032,-0.037,0.03,0.014,0.014,0.009,0.025
1.03,-0.085,-0.01,0.075,0.047,-0.08,0.032,-0.04,0.03,0.015,0.015,0.01,0.025
1.032,-0.081,-0.006,0.075,0.043,-0.078,0.035,-0.036,0.03,0.023,0.03,0.025,0.042
1.034,-0.078,-0.005,0.072,0.041,-0.074,0.033,-0.035,0.03,0.031,0.05,0.042,0.044
1.036,-0.071,-0.003,0.067,0.037,-0.069,0.032,-0.035,0.03,0.038,0.053,0.043,0.037
1.038,-0.064,0.0,0.065,0.031,-0.065,0.032,-0.035,0.03,0.048,0.043,0.033,0.034
1.04,-0.065,0.0,0.065,0.032,-0.065,0.032,-0.035,0.03,0.055,0.04,0.03,0.03
1.042,-0.061,0.001,0.062,0.03,-0.061,0.031,-0.035,0.022,0.044,0.032,0.026,0.03
1.044,-0.063,-0.008,0.054,0.035,-0.058,0.023,-0.035,0.013,0.033,0.027,0.022,0.028
1.046,-0.081,-0.02,0.061,0.05,-0.07,0.021,-0.035,0.008,0.027,0.021,0.018,0.022
1.048,-0.07,-0.027,0.043,0.048,-0.056,0.008,-0.034,0.003,0.017,0.014,0.014,0.02
1.05,-0.02,-0.035,-0.015,0.028,-0.002,-0.025,-0.03,-0.005,0.005,0.01,0.01,0.02
1.052,-0.04,-0.043,-0.003,0.041,-0.018,-0.023,-0.03,-0.013,-0.003,0.002,0.002,0.016
1.054,-0.07,-0.051,0.019,0.06,-0.044,-0.016,-0.03,-0.018,-0.013,-0.003,-0.006,0.011
1.056,-0.09,-0.058,0.032,0.074,-0.061,-0.013,-0.03,-0.022,-0.011,-0.009,-0.014,0.01
1.058,-0.118,-0.069,0.05,0.093,-0.084,-0.009,-0.03,-0.025,0.003,-0.016,-0.022,0.009
1.06,-0.145,-0.085,0.06,0.115,-0.102,-0.012,-0.03,-0.025,0.01,-0.02,-0.03,0.005
1.062,-0.135,-0.09,0.045,0.113,-0.09,-0.022,-0.03,-0.025,0.006,-0.028,-0.038,0.0
1.064,-0.117,-0.09,0.028,0.104,-0.073,-0.031,-0.031,-0.028,0.002,-0.034,-0.047,0.0
1.066,-0.102,-0.091,0.011,0.096,-0.056,-0.04,-0.028,-0.03,-0.002,-0.033,-0.049,-0.002
1.068,-0.078,-0.089,-0.011,0.084,-0.033,-0.049,-0.025,-0.03,-0.006,-0.03,-0.044,-0.005
1.07,-0.065,-0.09,-0.025,0.078,-0.02,-0.057,-0.025,-0.03,-0.01,-0.03,-0.04,-0.005
1.072,-0.109,-0.115,-0.006,0.112,-0.052,-0.061,-0.025,-0.028,-0.01,-0.026,-0.04,-0.009
1.074,-0.133,-0.12,0.013,0.126,-0.073,-0.053,-0.025,-0.043,-0.013,-0.025,-0.037,-0.01
1.076,-0.141,-0.113,0.027,0.127,-0.084,-0.043,-0.025,-0.05,-0.017,-0.024,-0.033,-0.011
1.078,-0.169,-0.116,0.054,0.142,-0.111,-0.031,-0.025,-0.044,-0.021,-0.018,-0.029,-0.016
1.08,-0.195,-0.115,0.08,0.155,-0.137,-0.017,-0.025,-0.045,-0.025,-0.02,-0.03,-0.02
1.082,-0.169,-0.111,0.058,0.14,-0.113,-0.026,-0.025,-0.045,-0.03,-0.045,-0.046,-0.02
1.084,-0.142,-0.11,0.033,0.126,-0.088,-0.038,-0.025,-0.045,-0.029,-0.053,-0.057,-0.023
1.086,-0.128,-0.11,0.018,0.118,-0.073,-0.046,-0.025,-0.043,-0.034,-0.047,-0.063,-0.025
1.088,-0.11,-0.11,0.0,0.11,-0.055,-0.055,-0.034,-0.04,-0.05,-0.054,-0.064,-0.026
1.09,-0.095,-0.11,-0.015,0.103,-0.04,-0.062,-0.05,-0.04,-0.065,-0.07,-0.06,-0.03
1.092,-0.105,-0.106,-0.001,0.105,-0.052,-0.053,-0.047,-0.04,-0.062,-0.067,-0.06,-0.031
1.094,-0.123,-0.104,0.019,0.113,-0.07,-0.043,-0.041,-0.04,-0.057,-0.064,-0.06,-0.027
1.096,-0.135,-0.106,0.03,0.12,-0.082,-0.038,-0.04,-0.04,-0.053,-0.065,-0.06,-0.025
1.098,-0.15,-0.104,0.046,0.127,-0.097,-0.029,-0.039,-0.039,-0.05,-0.065,-0.06,-0.024
1.1,-0.165,-0.1,0.065,0.132,-0.115,-0.017,-0.035,-0.035,-0.05,-0.065,-0.06,-0.02
1.102,-0.152,-0.1,0.052,0.125,-0.102,-0.024,-0.035,-0.035,-0.046,-0.065,-0.06,-0.02
1.104,-0.128,-0.1,0.028,0.114,-0.078,-0.035,-0.033,-0.035,-0.041,-0.065,-0.061,-0.017
1.106,-0.147,-0.102,0.046,0.124,-0.097,-0.028,-0.027,-0.035,-0.04,-0.065,-0.058,-0.015
1.108,-0.132,-0.097,0.035,0.114,-0.083,-0.031,-0.025,-0.036,-0.039,-0.064,-0.055,-0.014
1.11,-0.05,-0.095,-0.045,0.073,-0.002,-0.07,-0.025,-0.035,-0.035,-0.06,-0.055,-0.01
1.112,-0.126,-0.138,-0.011,0.132,-0.057,-0.075,-0.021,-0.024,-0.03,-0.06,-0.055,-0.01
1.114,-0.182,-0.141,0.041,0.161,-0.111,-0.05,-0.021,-0.011,-0.03,-0.06,-0.055,-0.007
1.116,-0.187,-0.123,0.064,0.155,-0.126,-0.029,-0.015,0.001,-0.028,-0.06,-0.055,-0.003
1.118,-0.181,-0.12,0.061,0.15,-0.121,-0.029,-0.002,0.013,-0.025,-0.06,-0.055,-0.008
1.12,-0.145,-0.11,0.035,0.127,-0.09,-0.037,0.005,0.025,-0.025,-0.06,-0.055,-0.025
1.122,-0.103,-0.093,0.01,0.098,-0.057,-0.041,0.016,0.032,-0.024,-0.059,-0.051,-0.042
1.124,-0.145,-0.153,-0.008,0.149,-0.068,-0.08,0.029,0.052,-0.029,-0.064,-0.08,-0.055
1.126,-0.138,-0.173,-0.035,0.156,-0.051,-0.104,0.024,0.077,-0.009,-0.047,-0.083,-0.078
1.128,-0.086,-0.125,-0.039,0.106,-0.023,-0.082,0.025,0.111,0.026,-0.021,-0.055,-0.08
1.13,-0.1,-0.09,0.01,0.095,-0.055,-0.04,0.07,0.18,0.06,0.005,-0.035,-0.035
1.132,-0.066,-0.009,0.057,0.038,-0.061,0.024,0.12,0.279,0.163,0.091,0.03,0.006
1.134,-0.064,0.05,0.114,0.007,-0.089,0.082,0.117,0.341,0.253,0.173,0.105,0.043
1.136,-0.031,0.092,0.122,-0.031,-0.077,0.107,0.098,0.379,0.315,0.235,0.157,0.076
1.138,0.045,0.135,0.09,-0.091,-0.023,0.112,0.076,0.393,0.376,0.296,0.196,0.11
1.14,0.11,0.175,0.065,-0.143,0.022,0.12,0.03,0.365,0.44,0.36,0.25,0.155
1.142,0.246,0.225,-0.02,-0.235,0.132,0.102,-0.011,0.344,0.481,0.421,0.31,0.203
1.144,0.359,0.252,-0.107,-0.305,0.233,0.072,-0.084,0.285,0.48,0.471,0.369,0.251
1.146,0.424,0.272,-0.152,-0.348,0.287,0.06,-0.175,0.193,0.475,0.505,0.416,0.299
1.148,0.481,0.303,-0.178,-0.392,0.329,0.062,-0.262,0.086,0.454,0.513,0.456,0.347
1.15,0.53,0.32,-0.21,-0.425,0.37,0.055,-0.335,-0.04,0.395,0.5,0.505,0.4
1.152,0.511,0.307,-0.204,-0.409,0.357,0.052,-0.377,-0.177,0.352,0.5,0.538,0.454
1.154,0.472,0.304,-0.168,-0.388,0.32,0.068,-0.445,-0.377,0.215,0.416,0.52,0.453
1.156,0.484,0.253,-0.231,-0.368,0.357,0.011,-0.503,-0.582,0.012,0.255,0.434,0.43
1.158,0.439,0.169,-0.271,-0.303,0.355,-0.051,-0.56,-0.841,-0.197,0.094,0.335,0.416
1.16,0.26,0.125,-0.135,-0.192,0.197,-0.005,-0.655,-1.195,-0.38,-0.025,0.28,0.4
1.162,0.169,0.075,-0.094,-0.122,0.131,-0.009,-0.703,-1.382,-0.475,-0.114,0.223,0.384
1.164,0.11,0.046,-0.063,-0.078,0.086,-0.008,-0.69,-1.375,-0.527,-0.163,0.181,0.37
1.166,0.071,0.034,-0.037,-0.052,0.054,-0.001,-0.663,-1.326,-0.558,-0.198,0.148,0.362
1.168,0.047,0.013,-0.035,-0.03,0.041,-0.01,-0.636,-1.285,-0.564,-0.242,0.11,0.342
1.17,0.005,-0.025,-0.03,0.01,0.018,-0.027,-0.595,-1.2,-0.555,-0.275,0.065,0.295
1.172,-0.037,-0.062,-0.025,0.05,-0.006,-0.043,-0.559,-1.119,-0.554,-0.261,0.023,0.253
1.174,-0.064,-0.089,-0.025,0.077,-0.019,-0.056,-0.518,-1.039,-0.518,-0.242,0.003,0.228
1.176,-0.087,-0.095,-0.007,0.091,-0.04,-0.051,-0.473,-0.93,-0.466,-0.227,-0.003,0.212
1.178,-0.119,-0.089,0.03,0.104,-0.074,-0.03,-0.428,-0.788,-0.416,-0.212,-0.013,0.188
1.18,-0.145,-0.09,0.055,0.117,-0.1,-0.017,-0.38,-0.65,-0.355,-0.2,-0.025,0.155
1.182,-0.138,-0.09,0.048,0.113,-0.093,-0.02,-0.333,-0.56,-0.298,-0.184,-0.032,0.126
1.184,-0.132,-0.09,0.041,0.111,-0.087,-0.024,-0.279,-0.473,-0.251,-0.171,-0.049,0.102
1.186,-0.124,-0.088,0.036,0.106,-0.08,-0.026,-0.22,-0.377,-0.209,-0.157,-0.071,0.077
1.188,-0.113,-0.085,0.029,0.099,-0.07,-0.027,-0.169,-0.299,-0.172,-0.142,-0.08,0.056
1.19,-0.11,-0.085,0.025,0.097,-0.067,-0.03,-0.135,-0.245,-0.145,-0.13,-0.075,0.05
1.192,-0.103,-0.085,0.017,0.093,-0.06,-0.034,-0.102,-0.188,-0.116,-0.118,-0.075,0.046
1.194,-0.094,-0.085,0.009,0.089,-0.051,-0.038,-0.079,-0.146,-0.095,-0.106,-0.075,0.039
1.196,-0.104,-0.085,0.018,0.095,-0.06,-0.033,-0.061,-0.114,-0.074,-0.096,-0.075,0.033
1.198,-0.133,-0.084,0.048,0.108,-0.09,-0.017,-0.047,-0.083,-0.057,-0.088,-0.075,0.028
1.2,-0.15,-0.08,0.07,0.115,-0.11,-0.005,-0.04,-0.055,-0.05,-0.08,-0.075,0.02
1.202,-0.126,-0.08,0.046,0.103,-0.086,-0.016,-0.036,-0.025,-0.046,-0.076,-0.071,0.016
1.204,-0.083,-0.08,0.003,0.081,-0.043,-0.038,-0.029,-0.012,-0.043,-0.07,-0.07,0.012
1.206,-0.104,-0.081,0.023,0.092,-0.063,-0.029,-0.023,-0.008,-0.036,-0.06,-0.07,0.009
1.208,-0.149,-0.078,0.07,0.113,-0.109,-0.003,-0.018,-0.004,-0.029,-0.054,-0.07,0.01
1.21,-0.14,-0.08,0.06,0.11,-0.1,-0.01,-0.01,0.0,-0.025,-0.05,-0.07,0.01
1.212,-0.173,-0.114,0.059,0.144,-0.116,-0.028,-0.006,0.004,-0.021,-0.046,-0.07,0.006
1.214,-0.179,-0.118,0.061,0.148,-0.12,-0.028,-0.002,0.008,-0.017,-0.045,-0.067,0.004
1.216,-0.164,-0.106,0.058,0.135,-0.111,-0.024,0.002,0.012,-0.015,-0.045,-0.064,0.006
1.218,-0.159,-0.104,0.055,0.131,-0.106,-0.025,0.006,0.016,-0.015,-0.045,-0.065,0.004
1.22,-0.155,-0.1,0.055,0.127,-0.105,-0.022,0.01,0.02,-0.015,-0.045,-0.065,0.0
1.222,-0.151,-0.096,0.055,0.123,-0.102,-0.02,0.014,0.024,-0.015,-0.041,-0.065,0.0
1.224,-0.148,-0.092,0.055,0.119,-0.101,-0.018,0.019,0.028,-0.012,-0.04,-0.062,0.001
1.226,-0.14,-0.087,0.053,0.113,-0.097,-0.016,0.02,0.032,-0.009,-0.04,-0.059,-0.002
1.228,-0.135,-0.085,0.05,0.11,-0.092,-0.018,0.021,0.036,-0.01,-0.04,-0.06,-0.005
1.23,-0.14,-0.09,0.05,0.115,-0.095,-0.02,0.025,0.04,-0.01,-0.04,-0.06,-0.005
1.232,-0.141,-0.09,0.05,0.116,-0.096,-0.02,0.025,0.04,-0.01,-0.04,-0.06,-0.005
1.234,-0.137,-0.09,0.047,0.113,-0.092,-0.021,0.028,0.04,-0.011,-0.037,-0.061,-0.008
1.236,-0.135,-0.09,0.045,0.112,-0.09,-0.022,0.032,0.04,-0.008,-0.034,-0.058,-0.011
1.238,-0.135,-0.09,0.045,0.112,-0.09,-0.022,0.036,0.04,-0.005,-0.035,-0.055,-0.01
1.24,-0.135,-0.09,0.045,0.112,-0.09,-0.022,0.04,0.04,-0.005,-0.035,-0.055,-0.01
1.242,-0.135,-0.09,0.045,0.112,-0.09,-0.022,0.04,0.04,-0.005,-0.035,-0.055,-0.014
1.244,-0.135,-0.093,0.042,0.114,-0.088,-0.025,0.04,0.04,-0.006,-0.032,-0.056,-0.016
1.246,-0.135,-0.095,0.04,0.115,-0.086,-0.027,0.04,0.04,-0.003,-0.029,-0.053,-0.014
1.248,-0.136,-0.096,0.04,0.116,-0.087,-0.027,0.04,0.04,0.0,-0.03,-0.05,-0.016
1.25,-0.14,-0.1,0.04,0.12,-0.09,-0.03,0.04,0.04,0.0,-0.03,-0.05,-0.02
1.252,-0.14,-0.1,0.041,0.12,-0.091,-0.03,0.04,0.04,0.0,-0.03,-0.05,-0.02
1.254,-0.138,-0.103,0.035,0.12,-0.086,-0.034,0.04,0.04,0.0,-0.03,-0.05,-0.02
1.256,-0.132,-0.106,0.026,0.119,-0.078,-0.04,0.04,0.04,0.0,-0.03,-0.05,-0.02
1.258,-0.122,-0.104,0.018,0.113,-0.07,-0.042,0.04,0.04,0.001,-0.03,-0.049,-0.02
1.26,-0.11,-0.1,0.01,0.105,-0.06,-0.045,0.04,0.04,0.005,-0.03,-0.045,-0.02
1.262,-0.099,-0.1,-0.001,0.099,-0.049,-0.05,0.04,0.038,0.005,-0.03,-0.045,-0.02
1.264,-0.115,-0.101,0.014,0.108,-0.065,-0.043,0.04,0.055,0.005,-0.03,-0.045,-0.02
1.266,-0.143,-0.098,0.046,0.121,-0.094,-0.026,0.04,0.068,0.005,-0.03,-0.045,-0.02
1.268,-0.156,-0.095,0.061,0.125,-0.108,-0.017,0.04,0.064,0.005,-0.03,-0.045,-0.02
1.27,-0.145,-0.095,0.05,0.12,-0.097,-0.022,0.04,0.065,0.005,-0.03,-0.045,-0.02
1.272,-0.133,-0.092,0.041,0.113,-0.087,-0.025,0.04,0.065,0.005,-0.03,-0.045,-0.02
1.274,-0.151,-0.114,0.036,0.133,-0.093,-0.039,0.043,0.065,0.005,-0.03,-0.046,-0.02
1.276,-0.145,-0.125,0.02,0.135,-0.082,-0.052,0.046,0.065,0.005,-0.03,-0.043,-0.02
1.278,-0.143,-0.112,0.03,0.127,-0.086,-0.04,0.045,0.065,0.005,-0.03,-0.04,-0.02
1.28,-0.19,-0.105,0.085,0.147,-0.137,-0.01,0.045,0.065,0.005,-0.03,-0.04,-0.02
1.282,-0.177,-0.097,0.08,0.136,-0.128,-0.009,0.045,0.065,0.005,-0.03,-0.04,-0.02
1.284,-0.159,-0.089,0.07,0.124,-0.114,-0.009,0.045,0.065,0.004,-0.03,-0.04,-0.02
1.286,-0.151,-0.082,0.069,0.116,-0.109,-0.006,0.045,0.065,0.007,-0.03,-0.04,-0.02
1.288,-0.135,-0.072,0.063,0.103,-0.099,-0.005,0.045,0.065,0.01,-0.03,-0.04,-0.02
1.29,-0.12,-0.065,0.055,0.092,-0.087,-0.005,0.045,0.065,0.01,-0.03,-0.04,-0.02
1.292,-0.128,-0.077,0.051,0.102,-0.089,-0.013,0.045,0.065,0.01,-0.03,-0.04,-0.02
1.294,-0.132,-0.085,0.047,0.108,-0.089,-0.019,0.045,0.065,0.01,-0.03,-0.037,-0.02
1.296,-0.128,-0.085,0.043,0.106,-0.085,-0.021,0.045,0.065,0.01,-0.03,-0.034,-0.02
1.298,-0.125,-0.085,0.04,0.105,-0.082,-0.022,0.045,0.065,0.01,-0.03,-0.035,-0.02
1.3,-0.125,-0.085,0.04,0.105,-0.082,-0.022,0.045,0.065,0.01,-0.03,-0.035,-0.02
1.302,-0.125,-0.085,0.04,0.105,-0.082,-0.022,0.049,0.065,0.01,-0.03,-0.035,-0.02
1.304,-0.124,-0.084,0.04,0.104,-0.082,-0.022,0.05,0.065,0.01,-0.03,-0.035,-0.02
1.306,-0.127,-0.087,0.04,0.107,-0.083,-0.023,0.05,0.065,0.01,-0.03,-0.035,-0.02
1.308,-0.122,-0.082,0.04,0.102,-0.08,-0.02,0.05,0.065,0.01,-0.03,-0.035,-0.02
1.31,-0.115,-0.075,0.04,0.095,-0.077,-0.017,0.05,0.065,0.01,-0.03,-0.035,-0.02
1.312,-0.144,-0.104,0.04,0.124,-0.092,-0.032,0.05,0.069,0.01,-0.026,-0.035,-0.02
1.314,-0.151,-0.111,0.04,0.131,-0.095,-0.035,0.05,0.073,0.013,-0.025,-0.032,-0.017
1.316,-0.141,-0.101,0.04,0.121,-0.09,-0.03,0.05,0.077,0.016,-0.023,-0.029,-0.015
1.318,-0.141,-0.1,0.04,0.12,-0.091,-0.03,0.05,0.08,0.015,-0.019,-0.03,-0.014
1.32,-0.14,-0.1,0.04,0.12,-0.09,-0.03,0.05,0.08,0.015,-0.02,-0.03,-0.01
1.322,-0.125,-0.096,0.029,0.11,-0.077,-0.033,0.05,0.084,0.019,-0.02,-0.026,-0.01
1.324,-0.108,-0.095,0.013,0.101,-0.059,-0.041,0.05,0.085,0.021,-0.017,-0.024,-0.011
1.326,-0.126,-0.094,0.032,0.109,-0.078,-0.031,0.05,0.087,0.019,-0.014,-0.026,-0.008
1.328,-0.152,-0.089,0.063,0.12,-0.108,-0.013,0.049,0.091,0.021,-0.015,-0.024,-0.005
1.33,-0.14,-0.085,0.055,0.112,-0.097,-0.015,0.045,0.09,0.025,-0.015,-0.02,-0.005
1.332,-0.136,-0.085,0.05,0.11,-0.093,-0.017,0.045,0.088,0.025,-0.011,-0.02,-0.001
1.334,-0.129,-0.082,0.047,0.105,-0.088,-0.017,0.045,0.102,0.024,-0.009,-0.021,0.001
1.336,-0.123,-0.08,0.043,0.101,-0.083,-0.018,0.045,0.112,0.027,-0.011,-0.018,-0.001
1.338,-0.118,-0.079,0.039,0.099,-0.078,-0.02,0.045,0.109,0.03,-0.009,-0.015,0.001
1.34,-0.11,-0.075,0.035,0.092,-0.072,-0.02,0.045,0.11,0.03,-0.005,-0.015,0.005
1.342,-0.106,-0.071,0.035,0.088,-0.071,-0.017,0.041,0.11,0.03,-0.005,-0.015,0.005
1.344,-0.099,-0.067,0.032,0.082,-0.065,-0.017,0.04,0.108,0.033,-0.006,-0.012,0.008
1.346,-0.094,-0.065,0.029,0.08,-0.061,-0.017,0.04,0.117,0.036,-0.003,-0.009,0.011
1.348,-0.095,-0.064,0.03,0.08,-0.062,-0.017,0.04,0.132,0.035,0.001,-0.01,0.01
1.35,-0.09,-0.06,0.03,0.075,-0.06,-0.015,0.04,0.135,0.035,0.005,-0.01,0.01
1.352,-0.085,-0.056,0.03,0.07,-0.057,-0.012,0.039,0.139,0.039,0.009,-0.006,0.014
1.354,-0.086,-0.055,0.031,0.07,-0.057,-0.012,0.048,0.144,0.041,0.013,-0.004,0.016
1.356,-0.082,-0.054,0.028,0.068,-0.055,-0.012,0.06,0.145,0.039,0.017,-0.006,0.014
1.358,-0.073,-0.049,0.025,0.06,-0.049,-0.012,0.066,0.146,0.041,0.02,-0.004,0.016
1.36,-0.07,-0.045,0.025,0.057,-0.047,-0.01,0.07,0.15,0.045,0.02,0.0,0.02
1.362,-0.071,-0.046,0.025,0.058,-0.047,-0.01,0.074,0.149,0.044,0.024,0.0,0.02
1.364,-0.064,-0.039,0.025,0.051,-0.044,-0.007,0.075,0.162,0.057,0.028,0.0,0.02
1.366,-0.058,-0.032,0.026,0.045,-0.042,-0.003,0.077,0.174,0.069,0.032,-0.001,0.02
1.368,-0.053,-0.029,0.024,0.041,-0.038,-0.002,0.08,0.175,0.07,0.035,0.001,0.02
1.37,-0.035,-0.025,0.01,0.03,-0.022,-0.007,0.08,0.18,0.07,0.035,0.01,0.02
1.372,-0.016,-0.021,-0.004,0.019,-0.006,-0.013,0.084,0.188,0.07,0.039,0.018,0.019
1.374,-0.057,-0.018,0.039,0.037,-0.048,0.01,0.086,0.193,0.073,0.04,0.026,0.025
1.376,-0.084,-0.01,0.074,0.047,-0.079,0.032,0.083,0.198,0.076,0.043,0.034,0.034
1.378,-0.084,-0.015,0.069,0.049,-0.076,0.027,0.08,0.199,0.074,0.044,0.042,0.034
1.38,-0.11,-0.04,0.07,0.075,-0.09,0.015,0.08,0.2,0.075,0.045,0.05,0.035
1.382,-0.103,-0.034,0.07,0.069,-0.087,0.018,0.081,0.225,0.099,0.074,0.054,0.06
1.384,-0.096,-0.023,0.073,0.059,-0.084,0.025,0.077,0.235,0.113,0.086,0.058,0.07
1.386,-0.094,-0.018,0.076,0.055,-0.085,0.028,0.09,0.237,0.118,0.085,0.062,0.072
1.388,-0.088,-0.013,0.075,0.05,-0.081,0.031,0.106,0.24,0.12,0.085,0.066,0.076
1.39,-0.08,-0.005,0.075,0.042,-0.077,0.035,0.1,0.235,0.115,0.085,0.07,0.075
1.392,-0.076,0.004,0.079,0.036,-0.078,0.041,0.1,0.235,0.115,0.089,0.07,0.075
1.394,-0.073,0.007,0.08,0.033,-0.077,0.044,0.097,0.233,0.113,0.091,0.071,0.076
1.396,-0.064,0.016,0.08,0.024,-0.072,0.048,0.095,0.227,0.108,0.088,0.067,0.073
1.398,-0.053,0.027,0.08,0.013,-0.067,0.053,0.094,0.235,0.113,0.094,0.075,0.079
1.4,-0.04,0.04,0.08,0.0,-0.06,0.06,0.09,0.26,0.135,0.12,0.105,0.105
1.402,0.002,0.078,0.076,-0.041,-0.037,0.077,0.09,0.265,0.157,0.142,0.123,0.122
1.404,0.014,0.089,0.075,-0.052,-0.031,0.082,0.087,0.265,0.162,0.15,0.129,0.129
1.406,0.009,0.084,0.075,-0.047,-0.034,0.079,0.084,0.265,0.159,0.15,0.132,0.13
1.408,0.01,0.085,0.075,-0.048,-0.033,0.08,0.085,0.265,0.16,0.151,0.136,0.131
1.41,0.01,0.085,0.075,-0.048,-0.033,0.08,0.085,0.265,0.16,0.155,0.14,0.135
1.412,0.014,0.085,0.071,-0.049,-0.029,0.077,0.081,0.261,0.158,0.155,0.144,0.134
1.414,0.019,0.089,0.07,-0.054,-0.026,0.079,0.08,0.256,0.173,0.158,0.148,0.141
1.416,0.034,0.104,0.07,-0.069,-0.018,0.087,0.078,0.255,0.18,0.161,0.152,0.147
1.418,0.045,0.115,0.07,-0.08,-0.013,0.092,0.075,0.254,0.174,0.16,0.156,0.152
1.42,0.035,0.105,0.07,-0.07,-0.018,0.087,0.075,0.25,0.175,0.165,0.16,0.16
1.422,0.034,0.1,0.066,-0.067,-0.016,0.082,0.071,0.245,0.171,0.187,0.164,0.164
1.424,0.039,0.103,0.065,-0.072,-0.013,0.083,0.07,0.246,0.17,0.189,0.169,0.168
1.426,0.055,0.121,0.065,-0.089,-0.005,0.093,0.068,0.242,0.168,0.184,0.168,0.172
1.428,0.072,0.137,0.065,-0.105,0.003,0.101,0.064,0.233,0.164,0.184,0.165,0.176
1.43,0.07,0.135,0.065,-0.103,0.002,0.1,0.065,0.225,0.165,0.18,0.165,0.18
1.432,0.069,0.135,0.065,-0.103,0.001,0.1,0.066,0.221,0.166,0.18,0.161,0.184
1.434,0.073,0.135,0.062,-0.104,0.005,0.098,0.062,0.215,0.162,0.181,0.159,0.186
1.436,0.076,0.135,0.059,-0.105,0.008,0.097,0.06,0.205,0.16,0.178,0.161,0.183
1.438,0.075,0.135,0.06,-0.105,0.007,0.097,0.059,0.199,0.159,0.175,0.159,0.18
1.44,0.075,0.135,0.06,-0.105,0.007,0.097,0.055,0.195,0.155,0.175,0.155,0.18
1.442,0.076,0.136,0.06,-0.106,0.007,0.098,0.055,0.183,0.155,0.171,0.155,0.176
1.444,0.07,0.127,0.057,-0.098,0.006,0.091,0.052,0.173,0.152,0.169,0.152,0.175
1.446,0.061,0.115,0.054,-0.089,0.003,0.084,0.05,0.167,0.149,0.171,0.149,0.173
1.448,0.053,0.108,0.055,-0.081,-0.001,0.081,0.049,0.157,0.151,0.168,0.15,0.17
1.45,0.04,0.095,0.055,-0.068,-0.008,0.075,0.045,0.145,0.15,0.155,0.15,0.17
1.452,0.029,0.084,0.055,-0.057,-0.014,0.069,0.045,0.137,0.142,0.147,0.142,0.158
1.454,0.047,0.101,0.054,-0.074,-0.004,0.077,0.045,0.13,0.137,0.139,0.134,0.148
1.456,0.051,0.108,0.057,-0.08,-0.003,0.082,0.045,0.119,0.131,0.131,0.126,0.141
1.458,0.031,0.091,0.06,-0.061,-0.015,0.075,0.045,0.108,0.124,0.123,0.118,0.133
1.46,0.02,0.08,0.06,-0.05,-0.02,0.07,0.045,0.1,0.12,0.115,0.11,0.125
1.462,0.004,0.068,0.064,-0.037,-0.03,0.066,0.045,0.092,0.112,0.107,0.101,0.117
1.464,-0.01,0.056,0.066,-0.023,-0.038,0.06,0.045,0.084,0.108,0.096,0.098,0.109
1.466,-0.019,0.046,0.064,-0.014,-0.042,0.054,0.045,0.077,0.1,0.085,0.09,0.101
1.468,-0.028,0.038,0.066,-0.006,-0.047,0.052,0.045,0.066,0.087,0.078,0.077,0.093
1.47,-0.04,0.03,0.07,0.005,-0.055,0.05,0.045,0.06,0.08,0.07,0.07,0.085
1.472,-0.048,0.022,0.07,0.013,-0.059,0.046,0.045,0.086,0.072,0.058,0.062,0.077
1.474,-0.054,0.017,0.07,0.019,-0.063,0.043,0.042,0.084,0.064,0.049,0.054,0.069
1.476,-0.055,0.013,0.068,0.021,-0.062,0.04,0.04,0.069,0.056,0.041,0.046,0.061
1.478,-0.056,0.009,0.065,0.023,-0.06,0.036,0.039,0.063,0.048,0.033,0.038,0.053
1.48,-0.06,0.005,0.065,0.027,-0.063,0.035,0.035,0.055,0.04,0.03,0.03,0.045
1.482,-0.06,0.001,0.061,0.029,-0.06,0.031,0.035,0.047,0.036,0.03,0.026,0.041
1.484,-0.063,-0.003,0.06,0.033,-0.061,0.028,0.036,0.039,0.032,0.027,0.022,0.037
1.486,-0.066,-0.008,0.058,0.036,-0.062,0.025,0.033,0.031,0.03,0.024,0.018,0.035
1.488,-0.065,-0.01,0.055,0.037,-0.06,0.022,0.03,0.023,0.029,0.025,0.014,0.034
1.49,-0.07,-0.015,0.055,0.042,-0.062,0.02,0.03,0.02,0.025,0.025,0.01,0.03
1.492,-0.091,-0.041,0.051,0.066,-0.071,0.005,0.03,0.02,0.025,0.021,0.01,0.03
1.494,-0.094,-0.044,0.05,0.069,-0.072,0.003,0.027,0.02,0.023,0.02,0.007,0.028
1.496,-0.087,-0.039,0.048,0.063,-0.068,0.004,0.024,0.02,0.017,0.018,0.003,0.022
1.498,-0.084,-0.04,0.045,0.061,-0.064,0.002,0.025,0.02,0.015,0.014,-0.001,0.02
1.5,-0.08,-0.035,0.045,0.057,-0.062,0.005,0.025,0.02,0.015,0.015,-0.005,0.02
1.502,-0.075,-0.034,0.041,0.054,-0.057,0.003,0.021,0.02,0.011,0.015,-0.01,0.016
1.504,-0.081,-0.042,0.04,0.061,-0.06,-0.001,0.019,0.017,0.01,0.012,-0.01,0.015
1.506,-0.102,-0.062,0.04,0.082,-0.071,-0.01,0.021,0.015,0.008,0.007,-0.013,0.013
1.508,-0.116,-0.076,0.04,0.096,-0.078,-0.018,0.019,0.014,0.004,0.005,-0.022,0.009
1.51,-0.11,-0.07,0.04,0.09,-0.075,-0.015,0.015,0.01,0.005,0.005,-0.03,0.01
1.512,-0.109,-0.069,0.04,0.089,-0.075,-0.015,0.015,0.01,0.005,0.001,-0.034,0.01
1.514,-0.111,-0.071,0.041,0.091,-0.076,-0.015,0.016,0.011,0.002,0.0,-0.035,0.007
1.516,-0.106,-0.068,0.038,0.087,-0.071,-0.015,0.013,0.008,-0.001,-0.001,-0.035,0.005
1.518,-0.091,-0.065,0.026,0.078,-0.058,-0.019,0.009,0.005,0.0,-0.006,-0.035,0.005
1.52,-0.09,-0.065,0.025,0.077,-0.057,-0.02,0.01,0.005,0.0,-0.01,-0.035,0.005
1.522,-0.128,-0.065,0.063,0.097,-0.095,-0.002,0.012,0.001,-0.004,-0.01,-0.035,0.005
1.524,-0.133,-0.062,0.071,0.097,-0.102,0.004,-0.003,-0.001,-0.006,-0.013,-0.035,0.002
1.526,-0.123,-0.059,0.063,0.09,-0.093,0.001,-0.01,0.001,-0.004,-0.015,-0.035,-0.001
1.528,-0.126,-0.06,0.065,0.092,-0.095,0.002,-0.004,-0.002,-0.006,-0.016,-0.035,0.0
1.53,-0.125,-0.06,0.065,0.092,-0.095,0.002,-0.005,-0.01,-0.01,-0.02,-0.035,0.0
1.532,-0.124,-0.06,0.065,0.091,-0.095,0.002,-0.005,-0.014,-0.01,-0.02,-0.035,0.0
1.534,-0.129,-0.063,0.066,0.095,-0.097,0.001,-0.005,-0.021,-0.009,-0.02,-0.035,-0.003
1.536,-0.129,-0.066,0.063,0.097,-0.095,-0.001,-0.005,-0.028,-0.012,-0.02,-0.035,-0.006
1.538,-0.124,-0.065,0.06,0.095,-0.092,-0.002,-0.004,-0.029,-0.015,-0.02,-0.035,-0.005
1.54,-0.125,-0.065,0.06,0.095,-0.092,-0.002,0.0,-0.025,-0.015,-0.02,-0.035,-0.005
1.542,-0.125,-0.065,0.06,0.095,-0.092,-0.002,0.0,-0.025,-0.015,-0.024,-0.035,-0.009
1.544,-0.125,-0.065,0.06,0.095,-0.092,-0.002,0.0,-0.025,-0.018,-0.025,-0.035,-0.01
1.546,-0.125,-0.065,0.06,0.095,-0.092,-0.002,0.0,-0.025,-0.021,-0.025,-0.035,-0.01
1.548,-0.125,-0.065,0.06,0.095,-0.092,-0.002,0.0,-0.024,-0.02,-0.025,-0.035,-0.01
1.55,-0.12,-0.06,0.06,0.09,-0.09,0.0,0.0,-0.02,-0.02,-0.025,-0.035,-0.01
1.552,-0.109,-0.053,0.056,0.08,-0.082,0.001,-0.004,-0.02,-0.024,-0.025,-0.035,-0.014
1.554,-0.128,-0.074,0.055,0.1,-0.091,-0.01,-0.005,-0.02,-0.025,-0.025,-0.035,-0.015
1.556,-0.142,-0.086,0.055,0.114,-0.098,-0.015,-0.005,-0.02,-0.025,-0.025,-0.035,-0.015
1.558,-0.134,-0.079,0.055,0.106,-0.094,-0.011,-0.005,-0.019,-0.025,-0.025,-0.035,-0.015
1.56,-0.135,-0.08,0.055,0.107,-0.095,-0.012,-0.005,-0.015,-0.025,-0.025,-0.035,-0.015
1.562,-0.135,-0.08,0.055,0.107,-0.095,-0.012,-0.001,-0.015,-0.021,-0.025,-0.035,-0.011
1.564,-0.132,-0.08,0.052,0.106,-0.092,-0.014,0.0,-0.015,-0.02,-0.025,-0.036,-0.01
1.566,-0.128,-0.078,0.049,0.103,-0.088,-0.014,0.0,-0.015,-0.02,-0.025,-0.033,-0.01
1.568,-0.125,-0.075,0.05,0.1,-0.087,-0.012,0.0,-0.015,-0.02,-0.025,-0.03,-0.01
1.57,-0.125,-0.075,0.05,0.1,-0.087,-0.012,0.0,-0.015,-0.02,-0.025,-0.03,-0.01
1.572,-0.125,-0.075,0.05,0.1,-0.087,-0.012,0.0,-0.011,-0.02,-0.025,-0.03,-0.01
1.574,-0.124,-0.076,0.049,0.1,-0.086,-0.013,-0.001,-0.01,-0.02,-0.025,-0.03,-0.01
1.576,-0.126,-0.073,0.053,0.1,-0.089,-0.01,0.002,-0.01,-0.02,-0.024,-0.03,-0.01
1.578,-0.114,-0.07,0.044,0.091,-0.079,-0.013,0.005,-0.01,-0.02,-0.028,-0.03,-0.01
1.58,-0.095,-0.07,0.025,0.082,-0.06,-0.022,0.005,-0.01,-0.02,-0.04,-0.03,-0.01
1.582,-0.132,-0.07,0.062,0.101,-0.097,-0.004,0.005,-0.006,-0.02,-0.036,-0.03,-0.01
1.584,-0.142,-0.07,0.072,0.105,-0.107,0.001,0.005,-0.005,-0.02,-0.034,-0.027,-0.01
1.586,-0.132,-0.07,0.061,0.101,-0.096,-0.004,0.005,-0.005,-0.02,-0.036,-0.024,-0.01
1.588,-0.129,-0.069,0.06,0.099,-0.094,-0.005,0.005,-0.005,-0.02,-0.034,-0.025,-0.01
1.59,-0.12,-0.065,0.055,0.092,-0.087,-0.005,0.005,-0.005,-0.02,-0.03,-0.025,-0.01
1.592,-0.116,-0.065,0.051,0.09,-0.083,-0.007,0.009,-0.005,-0.02,-0.03,-0.025,-0.01
1.594,-0.145,-0.065,0.08,0.105,-0.112,0.008,0.01,-0.002,-0.02,-0.03,-0.025,-0.01
1.596,-0.163,-0.065,0.098,0.114,-0.13,0.016,0.01,0.001,-0.02,-0.03,-0.025,-0.01
1.598,-0.152,-0.064,0.088,0.108,-0.119,0.011,0.01,0.0,-0.02,-0.029,-0.025,-0.01
1.6,-0.145,-0.06,0.085,0.102,-0.115,0.012,0.01,0.0,-0.02,-0.025,-0.025,-0.01
1.602,-0.145,-0.06,0.085,0.102,-0.115,0.012,0.01,0.004,-0.02,-0.025,-0.021,-0.01
1.604,-0.142,-0.06,0.082,0.101,-0.112,0.011,0.009,0.005,-0.02,-0.025,-0.02,-0.01
1.606,-0.14,-0.06,0.08,0.1,-0.11,0.01,0.012,0.005,-0.02,-0.025,-0.02,-0.01
1.608,-0.139,-0.06,0.08,0.099,-0.109,0.01,0.015,0.005,-0.02,-0.024,-0.02,-0.01
1.61,-0.135,-0.06,0.075,0.097,-0.105,0.007,0.015,0.005,-0.02,-0.02,-0.02,-0.01
1.612,-0.141,-0.07,0.07,0.105,-0.105,0.0,0.015,0.009,-0.02,-0.02,-0.02,-0.01
1.614,-0.162,-0.092,0.07,0.127,-0.116,-0.011,0.015,0.011,-0.021,-0.021,-0.02,-0.011
1.616,-0.169,-0.1,0.068,0.134,-0.118,-0.016,0.015,0.009,-0.018,-0.018,-0.02,-0.008
1.618,-0.159,-0.094,0.065,0.126,-0.111,-0.015,0.015,0.011,-0.015,-0.015,-0.019,-0.005
1.62,-0.16,-0.095,0.065,0.127,-0.112,-0.015,0.015,0.015,-0.015,-0.015,-0.02,-0.005
1.622,-0.16,-0.095,0.065,0.127,-0.112,-0.015,0.015,0.015,-0.011,-0.015,-0.033,-0.005
1.624,-0.16,-0.095,0.065,0.127,-0.112,-0.015,0.015,0.015,-0.01,-0.016,-0.033,-0.005
1.626,-0.16,-0.095,0.065,0.127,-0.112,-0.015,0.015,0.015,-0.008,-0.013,-0.029,-0.005
1.628,-0.16,-0.095,0.065,0.127,-0.112,-0.015,0.015,0.016,-0.005,-0.01,-0.03,-0.005
1.63,-0.16,-0.095,0.065,0.127,-0.112,-0.015,0.015,0.02,-0.005,-0.01,-0.03,-0.005
1.632,-0.152,-0.087,0.065,0.119,-0.108,-0.011,0.015,0.02,0.003,-0.01,-0.03,-0.001
1.634,-0.147,-0.081,0.065,0.114,-0.106,-0.008,0.015,0.02,0.009,-0.011,-0.03,0.0
1.636,-0.142,-0.078,0.063,0.11,-0.102,-0.007,0.015,0.02,0.012,-0.008,-0.03,0.0
1.638,-0.133,-0.074,0.059,0.103,-0.095,-0.007,0.015,0.021,0.016,-0.005,-0.03,0.0
1.64,-0.125,-0.07,0.055,0.097,-0.09,-0.007,0.015,0.025,0.02,-0.005,-0.03,0.0
1.642,-0.118,-0.067,0.051,0.092,-0.084,-0.007,0.015,0.025,0.024,-0.005,-0.03,0.0
1.644,-0.105,-0.059,0.046,0.082,-0.076,-0.006,0.015,0.025,0.025,-0.005,-0.03,-0.001
1.646,-0.114,-0.07,0.045,0.091,-0.08,-0.012,0.015,0.025,0.025,-0.005,-0.03,0.002
1.648,-0.131,-0.086,0.044,0.108,-0.087,-0.021,0.015,0.025,0.025,-0.005,-0.03,0.005
1.65,-0.12,-0.08,0.04,0.1,-0.08,-0.02,0.015,0.025,0.025,-0.005,-0.03,0.005
1.652,-0.115,-0.08,0.036,0.097,-0.076,-0.021,0.015,0.025,0.025,-0.005,-0.03,0.005
1.654,-0.112,-0.08,0.032,0.096,-0.072,-0.024,0.015,0.024,0.025,-0.002,-0.03,0.005
1.656,-0.108,-0.08,0.028,0.094,-0.068,-0.026,0.015,0.027,0.025,0.001,-0.03,0.005
1.658,-0.103,-0.08,0.023,0.091,-0.063,-0.028,0.015,0.03,0.025,0.0,-0.03,0.005
1.66,-0.105,-0.08,0.025,0.092,-0.065,-0.027,0.015,0.03,0.025,0.0,-0.03,0.005
1.662,-0.132,-0.081,0.051,0.106,-0.092,-0.015,0.015,0.03,0.025,0.0,-0.03,0.009
1.664,-0.121,-0.071,0.05,0.096,-0.085,-0.01,0.015,0.03,0.025,0.0,-0.03,0.013
1.666,-0.093,-0.061,0.033,0.077,-0.062,-0.014,0.015,0.03,0.025,0.0,-0.03,0.017
1.668,-0.075,-0.053,0.022,0.063,-0.048,-0.015,0.015,0.03,0.025,0.0,-0.03,0.021
1.67,-0.05,-0.04,0.01,0.045,-0.03,-0.015,0.015,0.03,0.025,0.0,-0.03,0.025
1.672,-0.029,-0.03,-0.001,0.03,-0.014,-0.016,0.015,0.03,0.025,0.004,-0.03,0.029
1.674,-0.054,-0.039,0.016,0.046,-0.034,-0.012,0.016,0.027,0.026,0.006,-0.03,0.031
1.676,-0.105,-0.08,0.025,0.092,-0.065,-0.027,0.012,0.024,0.023,0.002,-0.03,0.027
1.678,-0.123,-0.112,0.011,0.117,-0.067,-0.05,0.003,0.025,0.02,-0.007,-0.029,0.017
1.68,-0.105,-0.095,0.01,0.1,-0.057,-0.042,0.0,0.025,0.02,-0.01,-0.025,0.01
1.682,-0.126,-0.087,0.04,0.106,-0.082,-0.023,0.004,0.025,0.02,-0.006,-0.025,0.025
1.684,-0.121,-0.076,0.045,0.099,-0.083,-0.016,0.006,0.025,0.02,-0.005,-0.026,0.042
1.686,-0.104,-0.066,0.038,0.085,-0.071,-0.014,0.004,0.025,0.02,-0.005,-0.023,0.044
1.688,-0.098,-0.058,0.041,0.078,-0.069,-0.008,0.006,0.025,0.02,-0.005,-0.02,0.039
1.69,-0.085,-0.045,0.04,0.065,-0.062,-0.002,0.01,0.025,0.02,-0.005,-0.02,0.04
1.692,-0.07,-0.034,0.036,0.052,-0.052,0.001,0.01,0.021,0.02,-0.005,-0.02,0.04
1.694,-0.084,-0.049,0.035,0.066,-0.059,-0.007,0.01,0.02,0.02,-0.005,-0.017,0.04
1.696,-0.1,-0.065,0.035,0.082,-0.067,-0.014,0.01,0.02,0.02,-0.005,-0.014,0.04
1.698,-0.1,-0.065,0.035,0.082,-0.067,-0.015,0.011,0.02,0.02,-0.004,-0.015,0.039
1.7,-0.1,-0.065,0.035,0.082,-0.067,-0.015,0.015,0.02,0.02,0.0,-0.015,0.035
1.702,-0.096,-0.065,0.031,0.08,-0.063,-0.017,0.015,0.02,0.02,0.0,-0.011,0.035
1.704,-0.094,-0.065,0.029,0.08,-0.061,-0.017,0.014,0.02,0.017,0.0,-0.009,0.035
1.706,-0.096,-0.065,0.031,0.08,-0.063,-0.017,0.017,0.02,0.014,0.0,-0.011,0.035
1.708,-0.094,-0.065,0.029,0.079,-0.061,-0.018,0.02,0.019,0.015,0.0,-0.009,0.035
1.71,-0.09,-0.065,0.025,0.077,-0.057,-0.02,0.02,0.015,0.015,0.0,-0.005,0.035
1.712,-0.09,-0.065,0.025,0.077,-0.057,-0.02,0.02,0.015,0.015,0.0,-0.005,0.035
1.714,-0.09,-0.065,0.025,0.077,-0.057,-0.02,0.021,0.015,0.015,0.001,-0.006,0.032
1.716,-0.091,-0.065,0.025,0.078,-0.058,-0.02,0.018,0.015,0.015,-0.002,-0.003,0.029
1.718,-0.088,-0.064,0.024,0.076,-0.056,-0.02,0.015,0.015,0.015,-0.005,0.0,0.03
1.72,-0.085,-0.065,0.02,0.075,-0.052,-0.022,0.015,0.015,0.015,-0.005,0.0,0.03
1.722,-0.102,-0.082,0.02,0.092,-0.061,-0.03,0.015,0.015,0.015,-0.005,0.0,0.03
1.724,-0.1,-0.083,0.017,0.092,-0.059,-0.033,0.016,0.015,0.015,-0.005,0.003,0.031
1.726,-0.094,-0.079,0.015,0.086,-0.054,-0.032,0.013,0.014,0.015,-0.005,0.006,0.028
1.728,-0.094,-0.079,0.015,0.086,-0.055,-0.032,0.01,0.016,0.015,-0.005,0.005,0.025
1.73,-0.085,-0.075,0.01,0.08,-0.047,-0.032,0.01,0.02,0.015,-0.005,0.005,0.025
1.732,-0.08,-0.075,0.005,0.077,-0.042,-0.034,0.01,0.018,0.022,-0.001,0.005,0.025
1.734,-0.118,-0.076,0.042,0.097,-0.079,-0.016,0.01,0.036,0.033,0.0,0.002,0.025
1.736,-0.135,-0.073,0.062,0.104,-0.098,-0.005,0.01,0.046,0.034,0.0,-0.002,0.025
1.738,-0.117,-0.07,0.047,0.093,-0.082,-0.011,0.009,0.039,0.03,0.0,-0.006,0.025
1.74,-0.115,-0.07,0.045,0.092,-0.08,-0.012,0.005,0.04,0.03,0.0,-0.01,0.025
1.742,-0.112,-0.07,0.042,0.091,-0.077,-0.014,0.005,0.041,0.026,-0.004,-0.01,0.021
1.744,-0.101,-0.067,0.034,0.084,-0.067,-0.016,0.005,0.037,0.024,-0.005,-0.012,0.02
1.746,-0.09,-0.064,0.026,0.077,-0.058,-0.019,0.005,0.035,0.026,-0.005,-0.018,0.02
1.748,-0.092,-0.065,0.027,0.078,-0.059,-0.019,0.004,0.035,0.024,-0.004,-0.02,0.02
1.75,-0.085,-0.065,0.02,0.075,-0.052,-0.022,0.0,0.035,0.02,-0.005,-0.02,0.02
1.752,-0.025,-0.061,-0.036,0.044,0.005,-0.048,0.0,0.035,0.02,-0.022,-0.024,0.02
1.754,-0.018,-0.059,-0.042,0.039,0.012,-0.051,0.0,0.032,0.021,-0.024,-0.028,0.02
1.756,-0.037,-0.061,-0.023,0.049,-0.007,-0.042,0.0,0.029,0.018,-0.019,-0.031,0.02
1.758,-0.05,-0.059,-0.009,0.055,-0.02,-0.034,0.0,0.03,0.015,-0.02,-0.029,0.02
1.76,-0.085,-0.055,0.03,0.07,-0.057,-0.012,0.0,0.03,0.015,-0.02,-0.025,0.02
1.762,-0.126,-0.055,0.071,0.09,-0.098,0.008,0.004,0.026,0.016,-0.02,-0.025,0.02
1.764,-0.116,-0.055,0.061,0.085,-0.088,0.003,0.008,0.025,0.012,-0.02,-0.025,0.02
1.766,-0.074,-0.055,0.02,0.064,-0.046,-0.017,0.012,0.025,0.01,-0.02,-0.025,0.02
1.768,-0.063,-0.055,0.007,0.058,-0.035,-0.024,0.016,0.025,0.009,-0.02,-0.025,0.02
1.77,-0.085,-0.055,0.03,0.07,-0.057,-0.012,0.015,0.025,0.005,-0.02,-0.025,0.02
1.772,-0.074,-0.051,0.023,0.063,-0.049,-0.014,0.011,0.021,0.005,-0.02,-0.021,0.02
1.774,-0.065,-0.05,0.016,0.057,-0.04,-0.017,0.007,0.02,0.006,-0.02,-0.02,0.02
1.776,-0.065,-0.05,0.015,0.057,-0.04,-0.017,0.005,0.02,0.003,-0.02,-0.02,0.02
1.778,-0.075,-0.05,0.025,0.062,-0.05,-0.013,0.005,0.02,0.0,-0.02,-0.02,0.02
1.78,-0.095,-0.05,0.045,0.072,-0.07,-0.002,0.005,0.02,0.0,-0.02,-0.02,0.02
1.782,-0.091,-0.049,0.042,0.07,-0.067,-0.004,0.005,0.02,0.0,-0.016,-0.02,0.02
1.784,-0.093,-0.054,0.039,0.073,-0.065,-0.007,0.005,0.02,-0.003,-0.015,-0.021,0.02
1.786,-0.094,-0.054,0.04,0.074,-0.067,-0.006,0.005,0.02,-0.005,-0.015,-0.018,0.02
1.788,-0.089,-0.049,0.04,0.069,-0.065,-0.005,0.005,0.02,-0.005,-0.015,-0.015,0.02
1.79,-0.09,-0.05,0.04,0.07,-0.065,-0.005,0.005,0.02,-0.005,-0.015,-0.015,0.02
1.792,-0.09,-0.051,0.04,0.07,-0.065,-0.005,0.005,0.02,-0.001,-0.015,-0.015,0.02
1.794,-0.087,-0.047,0.041,0.067,-0.064,-0.003,0.005,0.02,0.0,-0.015,-0.015,0.02
1.796,-0.082,-0.045,0.038,0.063,-0.06,-0.003,0.005,0.02,0.0,-0.015,-0.015,0.02
1.798,-0.08,-0.045,0.035,0.062,-0.057,-0.005,0.005,0.02,0.0,-0.015,-0.014,0.02
1.8,-0.08,-0.045,0.035,0.062,-0.057,-0.005,0.005,0.02,0.0,-0.015,-0.01,0.02
1.802,-0.076,-0.045,0.031,0.061,-0.053,-0.007,0.005,0.02,0.0,-0.015,-0.01,0.02
1.804,-0.071,-0.042,0.029,0.057,-0.05,-0.006,0.005,0.02,0.0,-0.015,-0.01,0.02
1.806,-0.07,-0.039,0.031,0.055,-0.05,-0.004,0.005,0.02,0.0,-0.015,-0.01,0.02
1.808,-0.069,-0.04,0.029,0.055,-0.049,-0.006,0.005,0.02,0.0,-0.014,-0.01,0.02
1.81,-0.065,-0.04,0.025,0.052,-0.045,-0.007,0.005,0.02,0.0,-0.01,-0.01,0.02
1.812,-0.061,-0.036,0.025,0.048,-0.043,-0.005,0.005,0.02,0.0,-0.01,-0.01,0.024
1.814,-0.056,-0.034,0.021,0.045,-0.038,-0.006,0.005,0.02,0.0,-0.01,-0.013,0.026
1.816,-0.057,-0.036,0.021,0.047,-0.039,-0.007,0.005,0.02,0.0,-0.01,-0.017,0.023
1.818,-0.05,-0.033,0.017,0.042,-0.033,-0.008,0.005,0.02,0.0,-0.01,-0.021,0.02
1.82,-0.055,-0.035,0.02,0.045,-0.037,-0.007,0.005,0.02,0.0,-0.01,-0.025,0.02
1.822,-0.146,-0.069,0.077,0.107,-0.111,0.004,0.005,0.02,0.0,-0.01,-0.029,0.02
1.824,-0.142,-0.075,0.067,0.108,-0.104,-0.004,0.005,0.02,0.0,-0.011,-0.033,0.02
1.826,-0.087,-0.069,0.019,0.078,-0.053,-0.025,0.005,0.02,0.0,-0.008,-0.036,0.02
1.828,-0.066,-0.07,-0.003,0.068,-0.032,-0.036,0.005,0.02,0.0,-0.005,-0.034,0.02
1.83,-0.055,-0.065,-0.01,0.06,-0.022,-0.037,0.005,0.02,0.0,-0.005,-0.03,0.02
1.832,-0.045,-0.065,-0.02,0.055,-0.012,-0.042,0.005,0.02,0.0,-0.005,-0.03,0.02
1.834,-0.053,-0.066,-0.012,0.06,-0.02,-0.039,0.005,0.021,0.0,-0.005,-0.03,0.02
1.836,-0.063,-0.063,0.0,0.063,-0.031,-0.031,0.005,0.018,0.0,-0.005,-0.03,0.02
1.838,-0.066,-0.06,0.007,0.062,-0.037,-0.026,0.005,0.015,0.0,-0.005,-0.03,0.02
1.84,-0.075,-0.06,0.015,0.067,-0.045,-0.022,0.005,0.015,0.0,-0.005,-0.03,0.02
1.842,-0.081,-0.056,0.025,0.068,-0.052,-0.016,0.005,0.015,0.0,-0.005,-0.026,0.02
1.844,-0.072,-0.055,0.018,0.063,-0.045,-0.018,0.005,0.015,-0.001,-0.002,-0.025,0.02
1.846,-0.058,-0.055,0.003,0.057,-0.03,-0.025,0.005,0.015,0.002,0.001,-0.025,0.02
1.848,-0.048,-0.056,-0.007,0.052,-0.02,-0.032,0.005,0.015,0.005,0.0,-0.025,0.02
1.85,-0.04,-0.06,-0.02,0.05,-0.01,-0.04,0.005,0.015,0.005,0.0,-0.025,0.02
1.852,-0.025,-0.06,-0.035,0.043,0.005,-0.047,0.005,0.015,0.005,0.0,-0.025,0.02
1.854,-0.042,-0.06,-0.018,0.051,-0.012,-0.039,0.005,0.012,0.005,0.0,-0.026,0.02
1.856,-0.078,-0.06,0.018,0.069,-0.048,-0.021,0.004,0.009,0.005,0.0,-0.023,0.02
1.858,-0.088,-0.06,0.028,0.074,-0.058,-0.016,-0.003,0.01,0.005,0.0,-0.02,0.02
1.86,-0.08,-0.06,0.02,0.07,-0.05,-0.02,-0.005,0.01,0.005,0.0,-0.02,0.02
1.862,-0.127,-0.06,0.067,0.093,-0.097,0.003,0.029,0.01,0.005,0.0,-0.02,0.02
1.864,-0.125,-0.06,0.065,0.092,-0.095,0.003,0.035,0.01,0.005,-0.003,-0.02,0.02
1.866,-0.087,-0.06,0.027,0.073,-0.057,-0.016,0.028,0.01,0.005,-0.006,-0.02,0.02
1.868,-0.085,-0.06,0.025,0.073,-0.055,-0.017,0.03,0.01,0.006,-0.005,-0.019,0.02
1.87,-0.1,-0.06,0.04,0.08,-0.07,-0.01,0.03,0.01,0.01,-0.005,-0.015,0.02
1.872,-0.038,-0.06,-0.022,0.049,-0.008,-0.041,0.03,0.006,0.01,-0.005,-0.015,0.024
1.874,-0.024,-0.059,-0.036,0.042,0.006,-0.047,0.031,0.005,0.01,-0.005,-0.015,0.025
1.876,-0.041,-0.062,-0.021,0.052,-0.01,-0.041,0.028,0.005,0.01,-0.005,-0.015,0.025
1.878,-0.056,-0.065,-0.009,0.061,-0.023,-0.037,0.025,0.005,0.01,-0.006,-0.015,0.025
1.88,-0.095,-0.065,0.03,0.08,-0.062,-0.017,0.025,0.005,0.01,-0.01,-0.015,0.025
1.882,-0.131,-0.065,0.066,0.098,-0.098,0.0,0.025,0.005,0.01,-0.01,-0.015,0.025
1.884,-0.132,-0.065,0.067,0.098,-0.099,0.001,0.025,0.005,0.01,-0.01,-0.012,0.025
1.886,-0.122,-0.065,0.057,0.093,-0.089,-0.004,0.025,0.005,0.01,-0.01,-0.009,0.025
1.888,-0.119,-0.065,0.054,0.092,-0.086,-0.005,0.025,0.005,0.01,-0.01,-0.01,0.025
1.89,-0.115,-0.065,0.05,0.09,-0.082,-0.007,0.025,0.005,0.01,-0.01,-0.01,0.025
1.892,-0.111,-0.065,0.046,0.088,-0.078,-0.009,0.021,0.005,0.006,-0.01,-0.01,0.025
1.894,-0.107,-0.065,0.042,0.086,-0.074,-0.011,0.02,0.005,0.002,-0.013,-0.007,0.028
1.896,-0.104,-0.065,0.039,0.085,-0.071,-0.012,0.02,0.005,-0.002,-0.016,-0.004,0.031
1.898,-0.096,-0.065,0.031,0.08,-0.063,-0.017,0.02,0.004,-0.006,-0.015,-0.005,0.03
1.9,-0.09,-0.065,0.025,0.077,-0.057,-0.02,0.02,0.005,-0.01,-0.015,-0.005,0.03
1.902,-0.124,-0.065,0.059,0.094,-0.091,-0.003,0.02,0.022,-0.014,-0.015,-0.005,0.03
1.904,-0.125,-0.062,0.063,0.093,-0.094,0.0,0.017,0.024,-0.016,-0.015,-0.006,0.03
1.906,-0.108,-0.057,0.051,0.083,-0.08,-0.003,0.014,0.019,-0.011,-0.016,-0.003,0.03
1.908,-0.104,-0.055,0.05,0.08,-0.076,-0.002,0.015,0.02,-0.003,-0.014,0.0,0.03
1.91,-0.1,-0.055,0.045,0.077,-0.072,-0.005,0.015,0.02,0.0,-0.005,0.0,0.03
1.912,-0.088,-0.051,0.037,0.069,-0.063,-0.007,0.015,0.02,0.004,0.004,0.0,0.03
1.914,-0.077,-0.046,0.031,0.061,-0.053,-0.007,0.015,0.02,0.011,0.008,-0.001,0.03
1.916,-0.077,-0.046,0.031,0.061,-0.053,-0.007,0.014,0.021,0.018,0.013,0.002,0.029
1.918,-0.062,-0.043,0.019,0.052,-0.04,-0.012,0.017,0.019,0.02,0.022,0.005,0.022
1.92,-0.04,-0.03,0.01,0.035,-0.025,-0.01,0.03,0.025,0.025,0.03,0.005,0.02
1.922,-0.096,-0.018,0.078,0.057,-0.087,0.03,0.043,0.059,0.046,0.034,0.005,0.045
1.924,-0.086,-0.006,0.08,0.045,-0.083,0.037,0.043,0.065,0.055,0.038,0.005,0.05
1.926,-0.028,0.004,0.032,0.011,-0.03,0.018,0.038,0.058,0.055,0.04,0.005,0.044
1.928,-0.012,0.012,0.024,0.0,-0.018,0.018,0.034,0.06,0.055,0.04,0.006,0.045
1.93,-0.02,0.02,0.04,0.0,-0.03,0.03,0.03,0.06,0.055,0.04,0.01,0.045
1.932,0.031,0.028,-0.003,-0.03,0.017,0.013,0.026,0.06,0.055,0.04,0.014,0.045
1.934,0.031,0.036,0.005,-0.033,0.013,0.02,0.025,0.057,0.055,0.04,0.018,0.045
1.936,-0.009,0.045,0.054,-0.018,-0.031,0.049,0.024,0.054,0.055,0.04,0.022,0.044
1.938,-0.018,0.05,0.067,-0.016,-0.043,0.059,0.019,0.055,0.055,0.039,0.026,0.046
1.94,-0.01,0.045,0.055,-0.018,-0.033,0.05,0.015,0.055,0.055,0.035,0.03,0.055
1.942,-0.05,0.045,0.095,0.002,-0.073,0.069,0.011,0.055,0.059,0.035,0.034,0.059
1.944,-0.037,0.042,0.079,-0.002,-0.058,0.06,0.006,0.052,0.06,0.032,0.038,0.063
1.946,0.016,0.04,0.023,-0.028,-0.003,0.032,0.006,0.049,0.06,0.03,0.04,0.066
1.948,0.032,0.039,0.007,-0.036,0.012,0.023,0.002,0.05,0.06,0.029,0.04,0.065
1.95,0.005,0.035,0.03,-0.02,-0.013,0.032,-0.015,0.05,0.06,0.025,0.04,0.065
1.952,0.019,0.035,0.016,-0.027,0.001,0.025,-0.029,0.05,0.06,0.026,0.04,0.069
1.954,0.036,0.032,-0.003,-0.033,0.019,0.014,-0.028,0.051,0.06,0.022,0.04,0.07
1.956,0.029,0.029,0.0,-0.029,0.014,0.015,-0.025,0.048,0.06,0.037,0.04,0.07
1.958,0.02,0.03,0.011,-0.025,0.004,0.021,-0.024,0.045,0.059,0.057,0.04,0.07
1.96,0.005,0.03,0.025,-0.018,-0.01,0.027,-0.02,0.045,0.06,0.05,0.04,0.07
1.962,-0.057,0.026,0.083,0.016,-0.07,0.054,-0.02,0.045,0.077,0.05,0.04,0.07
1.964,-0.046,0.025,0.071,0.01,-0.059,0.048,-0.017,0.046,0.079,0.047,0.04,0.07
1.966,0.012,0.023,0.011,-0.017,0.0,0.016,-0.015,0.043,0.072,0.044,0.04,0.07
1.968,0.018,0.02,0.002,-0.018,0.008,0.01,-0.014,0.04,0.069,0.045,0.04,0.07
1.97,-0.01,0.02,0.03,-0.005,-0.02,0.025,-0.01,0.04,0.065,0.045,0.04,0.07
1.972,0.049,0.016,-0.033,-0.032,0.04,-0.009,-0.01,0.04,0.061,0.041,0.04,0.07
1.974,0.05,0.015,-0.035,-0.032,0.042,-0.01,-0.007,0.04,0.057,0.04,0.041,0.07
1.976,0.002,0.013,0.011,-0.008,-0.005,0.012,-0.005,0.04,0.053,0.038,0.038,0.07
1.978,-0.014,0.009,0.023,0.002,-0.019,0.016,-0.004,0.039,0.048,0.034,0.044,0.07
1.98,-0.01,0.01,0.02,0.0,-0.015,0.015,0.0,0.035,0.04,0.035,0.06,0.07
1.982,-0.053,0.011,0.063,0.021,-0.058,0.037,0.004,0.03,0.036,0.036,0.045,0.071
1.984,-0.054,0.005,0.058,0.025,-0.056,0.032,0.008,0.03,0.033,0.029,0.03,0.065
1.986,-0.03,-0.004,0.026,0.017,-0.028,0.011,0.011,0.028,0.026,0.022,0.018,0.056
1.988,-0.017,-0.013,0.004,0.015,-0.01,-0.004,0.009,0.025,0.019,0.019,0.001,0.048
1.99,0.005,-0.02,-0.025,0.008,0.015,-0.022,0.005,0.025,0.015,0.015,-0.01,0.04
1.992,0.033,-0.021,-0.053,-0.005,0.043,-0.037,0.001,0.021,0.011,0.007,-0.014,0.032
1.994,-0.011,-0.051,-0.039,0.031,0.015,-0.045,-0.003,0.016,0.006,0.002,-0.018,0.024
1.996,-0.066,-0.067,-0.001,0.066,-0.032,-0.034,-0.006,0.015,0.005,-0.002,-0.02,0.016
1.998,-0.065,-0.059,0.006,0.062,-0.036,-0.026,-0.004,0.014,0.004,-0.006,-0.02,0.008
2.0,-0.04,-0.06,-0.02,0.05,-0.01,-0.04,0.0,0.01,0.0,-0.01,-0.025,0.005
2.002,-0.042,-0.056,-0.014,0.049,-0.014,-0.035,0.0,0.01,0.0,-0.014,-0.03,0.005
2.004,-0.052,-0.054,-0.002,0.053,-0.024,-0.028,0.003,0.007,0.001,-0.018,-0.03,0.002
2.006,-0.059,-0.057,0.002,0.058,-0.03,-0.027,0.006,0.005,-0.002,-0.022,-0.032,-0.001
2.008,-0.076,-0.069,0.007,0.072,-0.041,-0.031,0.003,0.004,-0.005,-0.026,-0.035,0.0
2.01,-0.1,-0.085,0.015,0.092,-0.057,-0.035,-0.005,0.0,-0.005,-0.03,-0.035,0.0
2.012,-0.105,-0.082,0.023,0.093,-0.064,-0.029,-0.01,0.0,-0.005,-0.031,-0.035,-0.004
2.014,-0.106,-0.077,0.03,0.091,-0.068,-0.023,-0.008,0.001,-0.008,-0.027,-0.035,-0.006
2.016,-0.099,-0.073,0.025,0.086,-0.062,-0.024,-0.002,-0.002,-0.011,-0.025,-0.035,-0.004
2.018,-0.072,-0.069,0.003,0.071,-0.038,-0.033,0.0,-0.005,-0.01,-0.024,-0.035,-0.006
2.02,-0.06,-0.065,-0.005,0.063,-0.027,-0.035,0.0,-0.005,-0.01,-0.02,-0.035,-0.01
2.022,-0.104,-0.061,0.043,0.083,-0.073,-0.009,0.004,-0.009,-0.014,-0.02,-0.035,-0.01
2.024,-0.096,-0.057,0.039,0.077,-0.067,-0.009,0.005,-0.01,-0.015,-0.017,-0.035,-0.009
2.026,-0.075,-0.068,0.007,0.072,-0.041,-0.031,0.006,-0.01,-0.015,-0.015,-0.035,-0.012
2.028,-0.073,-0.081,-0.008,0.077,-0.032,-0.044,0.011,-0.009,-0.014,-0.014,-0.035,-0.015
2.03,-0.05,-0.075,-0.025,0.063,-0.012,-0.05,0.015,-0.005,-0.01,-0.01,-0.035,-0.015
2.032,-0.03,-0.075,-0.044,0.053,0.007,-0.059,0.015,-0.001,-0.01,-0.01,-0.031,-0.019
2.034,-0.042,-0.075,-0.033,0.059,-0.004,-0.054,0.018,0.0,-0.011,-0.007,-0.03,-0.021
2.036,-0.065,-0.075,-0.009,0.07,-0.027,-0.042,0.02,0.001,-0.008,-0.005,-0.028,-0.019
2.038,-0.086,-0.075,0.011,0.08,-0.048,-0.032,0.021,0.006,-0.005,-0.004,-0.025,-0.021
2.04,-0.115,-0.075,0.04,0.095,-0.077,-0.017,0.025,0.01,-0.005,0.0,-0.025,-0.025
2.042,-0.143,-0.075,0.068,0.109,-0.105,-0.003,0.029,0.009,-0.006,0.0,-0.021,-0.025
2.044,-0.133,-0.075,0.058,0.104,-0.095,-0.008,0.034,0.021,-0.002,0.003,-0.018,-0.024
2.046,-0.112,-0.075,0.036,0.093,-0.073,-0.019,0.035,0.038,0.0,0.007,-0.024,-0.027
2.048,-0.094,-0.075,0.019,0.084,-0.056,-0.028,0.037,0.055,0.0,0.002,-0.03,-0.03
2.05,-0.06,-0.075,-0.015,0.068,-0.022,-0.045,0.045,0.07,0.0,-0.015,-0.035,-0.03
2.052,-0.028,-0.076,-0.049,0.052,0.011,-0.062,0.047,0.078,-0.003,-0.03,-0.057,-0.03
2.054,-0.035,-0.066,-0.031,0.05,-0.002,-0.048,0.069,0.125,0.02,-0.019,-0.052,-0.029
2.056,-0.065,-0.058,0.007,0.062,-0.036,-0.026,0.082,0.163,0.045,-0.006,-0.043,-0.033
2.058,-0.081,-0.042,0.039,0.062,-0.06,-0.002,0.09,0.201,0.085,0.023,-0.026,-0.023
2.06,-0.075,0.005,0.08,0.035,-0.078,0.042,0.115,0.285,0.17,0.1,0.03,0.02
2.062,-0.057,0.049,0.107,0.003,-0.082,0.077,0.107,0.344,0.248,0.165,0.083,0.057
2.064,0.018,0.094,0.076,-0.056,-0.029,0.085,0.105,0.385,0.313,0.227,0.131,0.089
2.066,0.12,0.149,0.029,-0.134,0.046,0.089,0.085,0.423,0.377,0.293,0.181,0.123
2.068,0.213,0.201,-0.012,-0.207,0.112,0.095,0.047,0.422,0.44,0.364,0.242,0.168
2.07,0.315,0.245,-0.07,-0.28,0.192,0.087,0.01,0.365,0.49,0.435,0.315,0.23
2.072,0.432,0.301,-0.131,-0.366,0.281,0.085,-0.073,0.314,0.519,0.484,0.384,0.295
2.074,0.467,0.322,-0.145,-0.394,0.306,0.089,-0.149,0.245,0.507,0.53,0.447,0.347
2.076,0.519,0.365,-0.154,-0.442,0.336,0.105,-0.212,0.136,0.488,0.546,0.497,0.394
2.078,0.578,0.406,-0.172,-0.492,0.374,0.117,-0.276,0.009,0.466,0.542,0.534,0.45
2.08,0.53,0.38,-0.15,-0.455,0.34,0.115,-0.34,-0.13,0.395,0.54,0.56,0.495
2.082,0.49,0.368,-0.122,-0.429,0.306,0.123,-0.406,-0.339,0.248,0.45,0.541,0.481
2.084,0.508,0.274,-0.234,-0.391,0.37,0.02,-0.488,-0.565,0.005,0.257,0.419,0.465
2.086,0.485,0.193,-0.292,-0.339,0.389,-0.049,-0.566,-0.849,-0.223,0.075,0.321,0.452
2.088,0.371,0.175,-0.196,-0.273,0.284,-0.01,-0.614,-1.145,-0.364,-0.023,0.291,0.437
2.09,0.245,0.145,-0.1,-0.195,0.172,0.022,-0.64,-1.32,-0.445,-0.075,0.245,0.425
2.092,0.186,0.12,-0.065,-0.153,0.125,0.027,-0.669,-1.374,-0.49,-0.127,0.204,0.405
2.094,0.137,0.098,-0.038,-0.117,0.087,0.03,-0.648,-1.328,-0.529,-0.174,0.169,0.39
2.096,0.086,0.068,-0.017,-0.076,0.051,0.025,-0.607,-1.255,-0.54,-0.216,0.128,0.363
2.098,0.046,0.031,-0.016,-0.038,0.031,0.007,-0.577,-1.179,-0.536,-0.253,0.077,0.32
2.1,0.005,0.0,-0.005,-0.002,0.005,-0.002,-0.54,-1.085,-0.535,-0.27,0.035,0.285
2.102,-0.062,-0.016,0.046,0.039,-0.054,0.014,-0.505,-0.997,-0.499,-0.262,0.022,0.257
2.104,-0.089,-0.033,0.057,0.061,-0.073,0.012,-0.457,-0.906,-0.469,-0.256,0.011,0.228
2.106,-0.092,-0.044,0.048,0.068,-0.07,0.002,-0.405,-0.783,-0.417,-0.237,0.001,0.204
2.108,-0.094,-0.045,0.05,0.07,-0.071,0.002,-0.358,-0.64,-0.344,-0.201,-0.007,0.185
2.11,-0.09,-0.045,0.045,0.067,-0.067,0.0,-0.31,-0.525,-0.29,-0.17,-0.02,0.165
2.112,-0.095,-0.049,0.045,0.071,-0.07,-0.002,-0.262,-0.45,-0.237,-0.153,-0.033,0.141
2.114,-0.091,-0.05,0.042,0.07,-0.067,-0.004,-0.211,-0.357,-0.196,-0.142,-0.039,0.116
2.116,-0.093,-0.053,0.04,0.073,-0.066,-0.007,-0.159,-0.275,-0.164,-0.127,-0.058,0.097
2.118,-0.101,-0.062,0.039,0.082,-0.07,-0.011,-0.116,-0.221,-0.133,-0.112,-0.076,0.088
2.12,-0.11,-0.075,0.035,0.092,-0.072,-0.02,-0.085,-0.165,-0.105,-0.1,-0.065,0.08
2.122,-0.13,-0.094,0.035,0.112,-0.082,-0.03,-0.051,-0.121,-0.08,-0.088,-0.06,0.072
2.124,-0.109,-0.077,0.032,0.093,-0.07,-0.022,-0.037,-0.078,-0.062,-0.079,-0.057,0.061
2.126,-0.061,-0.031,0.03,0.046,-0.045,-0.001,-0.032,-0.049,-0.047,-0.071,-0.053,0.051
2.128,-0.049,-0.019,0.029,0.034,-0.038,0.004,-0.023,-0.037,-0.031,-0.063,-0.049,0.043
2.13,-0.07,-0.045,0.025,0.057,-0.047,-0.01,-0.015,-0.025,-0.015,-0.055,-0.045,0.035
2.132,-0.041,-0.016,0.025,0.028,-0.033,0.004,-0.007,-0.009,-0.002,-0.047,-0.041,0.03
2.134,-0.071,-0.049,0.022,0.06,-0.046,-0.013,0.001,0.004,0.004,-0.039,-0.037,0.03
2.136,-0.1,-0.081,0.019,0.09,-0.059,-0.03,0.008,0.016,0.005,-0.032,-0.034,0.03
2.138,-0.089,-0.068,0.021,0.078,-0.055,-0.024,0.018,0.028,0.005,-0.03,-0.035,0.03
2.14,-0.105,-0.07,0.035,0.087,-0.07,-0.017,0.035,0.04,0.005,-0.03,-0.035,0.03
2.142,-0.141,-0.07,0.07,0.105,-0.105,0.0,0.053,0.045,0.009,-0.03,-0.031,0.03
2.144,-0.138,-0.07,0.068,0.103,-0.103,-0.001,0.053,0.045,0.01,-0.031,-0.029,0.03
2.146,-0.115,-0.07,0.044,0.092,-0.08,-0.012,0.049,0.047,0.01,-0.028,-0.031,0.03
2.148,-0.103,-0.07,0.033,0.086,-0.068,-0.018,0.05,0.05,0.01,-0.025,-0.029,0.03
2.15,-0.1,-0.07,0.03,0.085,-0.065,-0.02,0.05,0.05,0.01,-0.025,-0.025,0.03
2.152,-0.096,-0.07,0.026,0.083,-0.061,-0.022,0.05,0.054,0.014,-0.025,-0.025,0.03
2.154,-0.092,-0.07,0.022,0.081,-0.057,-0.024,0.05,0.055,0.016,-0.026,-0.026,0.03
2.156,-0.089,-0.07,0.018,0.079,-0.053,-0.026,0.05,0.057,0.014,-0.023,-0.023,0.03
2.158,-0.083,-0.069,0.014,0.076,-0.048,-0.027,0.05,0.06,0.016,-0.02,-0.029,0.029
2.16,-0.085,-0.065,0.02,0.075,-0.052,-0.022,0.05,0.06,0.02,-0.02,-0.045,0.025
2.162,-0.119,-0.065,0.054,0.092,-0.086,-0.005,0.05,0.06,0.02,-0.02,-0.042,0.025
2.164,-0.125,-0.065,0.06,0.095,-0.092,-0.002,0.05,0.06,0.02,-0.02,-0.039,0.025
2.166,-0.119,-0.065,0.054,0.091,-0.086,-0.006,0.049,0.06,0.019,-0.02,-0.04,0.025
2.168,-0.119,-0.065,0.054,0.092,-0.086,-0.005,0.051,0.06,0.021,-0.019,-0.04,0.025
2.17,-0.115,-0.065,0.05,0.09,-0.082,-0.007,0.055,0.06,0.025,-0.015,-0.04,0.025
2.172,-0.115,-0.065,0.05,0.09,-0.082,-0.007,0.053,0.071,0.023,-0.015,-0.04,0.025
2.174,-0.112,-0.065,0.047,0.088,-0.079,-0.009,0.071,0.089,0.038,-0.015,-0.04,0.025
2.176,-0.111,-0.066,0.045,0.088,-0.077,-0.011,0.081,0.095,0.045,-0.015,-0.04,0.025
2.178,-0.108,-0.064,0.044,0.085,-0.076,-0.01,0.074,0.089,0.039,-0.014,-0.04,0.025
2.18,-0.105,-0.065,0.04,0.085,-0.072,-0.012,0.075,0.09,0.04,-0.01,-0.04,0.025
2.182,-0.131,-0.091,0.04,0.111,-0.085,-0.025,0.075,0.09,0.04,-0.01,-0.04,0.025
2.184,-0.13,-0.09,0.041,0.11,-0.085,-0.024,0.075,0.09,0.04,-0.01,-0.04,0.025
2.186,-0.11,-0.073,0.038,0.091,-0.074,-0.017,0.073,0.09,0.038,-0.01,-0.04,0.025
2.188,-0.098,-0.063,0.035,0.08,-0.066,-0.014,0.07,0.09,0.035,-0.01,-0.039,0.025
2.19,-0.085,-0.05,0.035,0.067,-0.06,-0.007,0.07,0.09,0.035,-0.01,-0.035,0.025
2.192,-0.065,-0.035,0.031,0.05,-0.048,-0.001,0.07,0.09,0.035,-0.006,-0.035,0.025
2.194,-0.08,-0.049,0.03,0.065,-0.054,-0.009,0.071,0.09,0.036,-0.004,-0.035,0.025
2.196,-0.074,-0.046,0.028,0.06,-0.051,-0.009,0.068,0.09,0.033,-0.006,-0.035,0.025
2.198,-0.029,-0.004,0.025,0.016,-0.026,0.01,0.065,0.09,0.03,-0.004,-0.035,0.025
2.2,0.0,0.025,0.025,-0.013,-0.013,0.025,0.065,0.09,0.03,0.0,-0.035,0.025
2.202,-0.007,0.014,0.021,-0.004,-0.014,0.018,0.065,0.09,0.03,0.0,-0.035,0.025
2.204,-0.016,0.003,0.019,0.007,-0.017,0.011,0.065,0.09,0.03,0.0,-0.035,0.025
2.206,-0.026,-0.004,0.022,0.015,-0.024,0.009,0.065,0.09,0.03,-0.002,-0.035,0.025
2.208,-0.028,-0.012,0.017,0.02,-0.022,0.002,0.064,0.09,0.029,-0.006,-0.035,0.025
2.21,-0.01,-0.02,-0.01,0.015,0.0,-0.015,0.06,0.09,0.025,-0.01,-0.035,0.025
2.212,0.004,-0.035,-0.038,0.015,0.021,-0.037,0.06,0.09,0.025,-0.014,-0.035,0.025
2.214,-0.032,-0.058,-0.025,0.045,-0.003,-0.041,0.06,0.09,0.025,-0.016,-0.036,0.025
2.216,-0.065,-0.064,0.002,0.064,-0.033,-0.031,0.06,0.09,0.025,-0.013,-0.033,0.025
2.218,-0.073,-0.053,0.02,0.063,-0.046,-0.017,0.059,0.09,0.024,-0.009,-0.03,0.025
2.22,-0.09,-0.05,0.04,0.07,-0.065,-0.005,0.055,0.09,0.02,-0.005,-0.03,0.025
2.222,-0.1,-0.042,0.058,0.071,-0.079,0.008,0.055,0.09,0.02,-0.005,-0.03,0.025
2.224,-0.095,-0.037,0.058,0.066,-0.076,0.011,0.055,0.09,0.02,-0.002,-0.031,0.025
2.226,-0.085,-0.031,0.054,0.058,-0.069,0.011,0.055,0.09,0.02,0.0,-0.028,0.025
2.228,-0.079,-0.024,0.055,0.051,-0.067,0.016,0.054,0.09,0.02,0.0,-0.025,0.025
2.23,-0.075,-0.02,0.055,0.047,-0.065,0.017,0.055,0.09,0.02,0.005,-0.025,0.025
2.232,-0.067,-0.012,0.055,0.039,-0.061,0.021,0.068,0.099,0.024,0.01,-0.025,0.025
2.234,-0.061,-0.006,0.055,0.033,-0.058,0.024,0.066,0.098,0.028,0.01,-0.026,0.025
2.236,-0.058,-0.003,0.055,0.03,-0.056,0.026,0.055,0.093,0.032,0.012,-0.023,0.025
2.238,-0.054,0.001,0.055,0.026,-0.054,0.028,0.059,0.098,0.036,0.015,-0.02,0.025
2.24,-0.05,0.005,0.055,0.022,-0.053,0.03,0.08,0.115,0.04,0.015,-0.02,0.025
2.242,-0.054,0.001,0.055,0.026,-0.054,0.028,0.085,0.12,0.044,0.031,-0.02,0.029
2.244,-0.058,-0.003,0.055,0.03,-0.056,0.026,0.085,0.12,0.045,0.04,-0.02,0.03
2.246,-0.062,-0.007,0.055,0.034,-0.058,0.024,0.085,0.12,0.045,0.04,-0.02,0.03
2.248,-0.066,-0.011,0.055,0.038,-0.06,0.022,0.085,0.121,0.045,0.04,-0.019,0.03
2.25,-0.07,-0.015,0.055,0.042,-0.062,0.02,0.085,0.125,0.045,0.04,-0.015,0.03
2.252,-0.074,-0.019,0.055,0.046,-0.064,0.018,0.085,0.125,0.045,0.04,-0.015,0.03
2.254,-0.079,-0.024,0.055,0.051,-0.067,0.015,0.085,0.124,0.045,0.04,-0.015,0.029
2.256,-0.079,-0.024,0.055,0.051,-0.066,0.016,0.085,0.127,0.045,0.04,-0.015,0.032
2.258,-0.074,-0.019,0.055,0.046,-0.065,0.017,0.085,0.131,0.045,0.04,-0.014,0.035
2.26,-0.075,-0.02,0.055,0.047,-0.065,0.017,0.085,0.135,0.045,0.04,-0.01,0.035
2.262,-0.075,-0.021,0.055,0.047,-0.065,0.017,0.085,0.139,0.045,0.04,-0.01,0.035
2.264,-0.072,-0.017,0.055,0.044,-0.063,0.019,0.085,0.14,0.048,0.04,-0.01,0.035
2.266,-0.069,-0.014,0.055,0.041,-0.061,0.02,0.085,0.142,0.051,0.04,-0.01,0.035
2.268,-0.071,-0.015,0.056,0.043,-0.063,0.02,0.085,0.145,0.05,0.04,-0.01,0.035
2.27,-0.075,-0.015,0.06,0.045,-0.067,0.022,0.085,0.145,0.05,0.04,-0.01,0.035
2.272,-0.075,-0.015,0.06,0.045,-0.067,0.022,0.085,0.149,0.05,0.04,-0.006,0.039
2.274,-0.074,-0.015,0.059,0.045,-0.066,0.022,0.085,0.15,0.05,0.04,-0.004,0.04
2.276,-0.077,-0.015,0.062,0.046,-0.069,0.023,0.085,0.151,0.05,0.04,-0.006,0.04
2.278,-0.08,-0.015,0.065,0.047,-0.072,0.025,0.085,0.156,0.05,0.04,-0.004,0.04
2.28,-0.08,-0.015,0.065,0.047,-0.072,0.025,0.085,0.16,0.05,0.04,0.0,0.04
2.282,-0.08,-0.015,0.065,0.047,-0.072,0.025,0.085,0.164,0.05,0.04,0.0,0.04
2.284,-0.077,-0.015,0.062,0.046,-0.069,0.023,0.084,0.168,0.05,0.04,-0.001,0.04
2.286,-0.073,-0.015,0.058,0.044,-0.065,0.021,0.087,0.174,0.052,0.04,0.002,0.04
2.288,-0.069,-0.015,0.054,0.042,-0.061,0.019,0.09,0.182,0.056,0.04,0.005,0.04
2.29,-0.065,-0.015,0.05,0.04,-0.057,0.017,0.09,0.185,0.06,0.04,0.005,0.04
2.292,-0.061,-0.015,0.046,0.037,-0.053,0.016,0.094,0.185,0.064,0.04,0.005,0.04
2.294,-0.057,-0.016,0.04,0.036,-0.048,0.012,0.095,0.187,0.069,0.04,0.003,0.039
2.296,-0.053,-0.01,0.043,0.031,-0.047,0.016,0.098,0.195,0.069,0.039,0.011,0.044
2.298,-0.032,0.002,0.034,0.014,-0.033,0.018,0.107,0.208,0.072,0.042,0.029,0.059
2.3,-0.005,0.01,0.015,-0.003,-0.01,0.012,0.115,0.22,0.085,0.055,0.04,0.075
2.302,-0.03,0.022,0.052,0.004,-0.041,0.037,0.119,0.225,0.082,0.073,0.044,0.08
2.304,-0.03,0.031,0.061,-0.001,-0.046,0.046,0.12,0.223,0.074,0.073,0.048,0.079
2.306,-0.013,0.041,0.053,-0.014,-0.033,0.047,0.12,0.231,0.082,0.069,0.053,0.082
2.308,-0.002,0.053,0.055,-0.026,-0.028,0.053,0.12,0.241,0.097,0.07,0.055,0.085
2.31,0.01,0.06,0.05,-0.035,-0.02,0.055,0.12,0.235,0.095,0.065,0.055,0.085
2.312,0.007,0.057,0.05,-0.032,-0.022,0.053,0.12,0.233,0.093,0.063,0.06,0.09
2.314,0.0,0.047,0.047,-0.024,-0.023,0.046,0.119,0.25,0.109,0.079,0.059,0.088
2.316,0.019,0.065,0.046,-0.043,-0.013,0.055,0.122,0.265,0.128,0.099,0.067,0.098
2.318,0.051,0.094,0.043,-0.073,0.004,0.068,0.125,0.273,0.136,0.105,0.083,0.111
2.32,0.055,0.1,0.045,-0.078,0.005,0.072,0.125,0.285,0.14,0.11,0.095,0.115
2.322,0.035,0.126,0.092,-0.081,-0.028,0.109,0.142,0.281,0.157,0.136,0.117,0.136
2.324,0.023,0.122,0.099,-0.072,-0.038,0.111,0.144,0.279,0.159,0.14,0.116,0.139
2.326,0.015,0.101,0.086,-0.058,-0.035,0.093,0.137,0.28,0.152,0.132,0.107,0.132
2.328,0.002,0.086,0.084,-0.044,-0.041,0.085,0.134,0.28,0.149,0.129,0.104,0.129
2.33,-0.01,0.07,0.08,-0.03,-0.045,0.075,0.13,0.28,0.145,0.125,0.1,0.125
2.332,-0.021,0.055,0.076,-0.017,-0.049,0.065,0.13,0.281,0.141,0.12,0.094,0.125
2.334,-0.032,0.04,0.072,-0.004,-0.053,0.056,0.128,0.276,0.141,0.124,0.105,0.127
2.336,0.03,0.098,0.067,-0.064,-0.019,0.082,0.122,0.294,0.169,0.154,0.14,0.151
2.338,0.11,0.175,0.065,-0.143,0.022,0.12,0.12,0.317,0.198,0.184,0.169,0.179
2.34,0.1,0.17,0.07,-0.135,0.015,0.12,0.12,0.305,0.19,0.185,0.17,0.18
2.342,0.094,0.169,0.074,-0.132,0.01,0.121,0.116,0.3,0.189,0.189,0.173,0.184
2.344,0.098,0.174,0.075,-0.137,0.011,0.124,0.111,0.297,0.191,0.194,0.179,0.189
2.346,0.1,0.175,0.075,-0.138,0.012,0.125,0.11,0.293,0.188,0.196,0.18,0.19
2.348,0.101,0.176,0.075,-0.139,0.012,0.125,0.109,0.289,0.185,0.194,0.181,0.191
2.35,0.105,0.18,0.075,-0.143,0.015,0.127,0.105,0.285,0.185,0.19,0.185,0.195
2.352,0.106,0.181,0.075,-0.144,0.015,0.127,0.105,0.281,0.185,0.19,0.189,0.195
2.354,0.1,0.175,0.075,-0.138,0.012,0.125,0.106,0.274,0.185,0.191,0.193,0.195
2.356,0.09,0.165,0.075,-0.128,0.008,0.119,0.103,0.266,0.183,0.188,0.196,0.195
2.358,0.102,0.169,0.067,-0.136,0.017,0.117,0.099,0.258,0.18,0.185,0.194,0.196
2.36,0.13,0.195,0.065,-0.163,0.032,0.13,0.1,0.25,0.18,0.185,0.19,0.2
2.362,0.106,0.209,0.103,-0.158,0.002,0.156,0.101,0.242,0.18,0.185,0.186,0.205
2.364,0.097,0.205,0.109,-0.151,-0.006,0.157,0.094,0.234,0.177,0.182,0.182,0.203
2.366,0.102,0.196,0.094,-0.149,0.004,0.145,0.087,0.226,0.175,0.18,0.178,0.198
2.368,0.099,0.188,0.089,-0.144,0.005,0.139,0.084,0.218,0.175,0.18,0.174,0.194
2.37,0.095,0.18,0.085,-0.138,0.005,0.132,0.08,0.21,0.175,0.18,0.17,0.19
2.372,0.095,0.172,0.077,-0.134,0.009,0.124,0.076,0.202,0.176,0.181,0.171,0.186
2.374,0.095,0.163,0.068,-0.13,0.014,0.115,0.072,0.194,0.17,0.172,0.165,0.182
2.376,0.095,0.158,0.063,-0.126,0.015,0.11,0.068,0.186,0.161,0.16,0.156,0.178
2.378,0.096,0.153,0.058,-0.125,0.018,0.105,0.064,0.178,0.153,0.153,0.148,0.173
2.38,0.09,0.145,0.055,-0.118,0.017,0.1,0.06,0.17,0.145,0.145,0.14,0.165
2.382,0.06,0.137,0.076,-0.099,-0.008,0.106,0.06,0.167,0.137,0.137,0.132,0.157
2.384,0.053,0.132,0.08,-0.093,-0.014,0.105,0.061,0.156,0.129,0.129,0.123,0.149
2.386,0.055,0.127,0.072,-0.091,-0.009,0.099,0.058,0.145,0.121,0.121,0.118,0.141
2.388,0.048,0.118,0.069,-0.083,-0.01,0.093,0.055,0.138,0.114,0.114,0.113,0.133
2.39,0.045,0.11,0.065,-0.078,-0.01,0.087,0.055,0.13,0.11,0.11,0.105,0.125
2.392,0.046,0.106,0.061,-0.076,-0.008,0.083,0.055,0.118,0.106,0.106,0.101,0.121
2.394,0.039,0.1,0.06,-0.069,-0.011,0.079,0.056,0.109,0.105,0.102,0.098,0.115
2.396,0.032,0.09,0.059,-0.061,-0.014,0.074,0.053,0.099,0.104,0.098,0.091,0.105
2.398,0.03,0.084,0.054,-0.057,-0.012,0.069,0.05,0.096,0.099,0.094,0.083,0.099
2.4,0.03,0.08,0.05,-0.055,-0.01,0.065,0.05,0.105,0.095,0.09,0.08,0.095
2.402,0.026,0.072,0.046,-0.05,-0.01,0.059,0.05,0.098,0.096,0.091,0.077,0.087
2.404,0.021,0.063,0.043,-0.042,-0.011,0.053,0.05,0.089,0.087,0.082,0.066,0.078
2.406,0.021,0.058,0.037,-0.039,-0.008,0.047,0.048,0.081,0.075,0.071,0.056,0.073
2.408,0.008,0.053,0.045,-0.031,-0.019,0.049,0.045,0.073,0.068,0.062,0.047,0.069
2.41,-0.025,0.045,0.07,-0.01,-0.048,0.057,0.045,0.065,0.06,0.05,0.035,0.065
2.412,-0.026,0.037,0.063,-0.005,-0.045,0.05,0.045,0.057,0.048,0.042,0.027,0.061
2.414,-0.027,0.029,0.056,-0.001,-0.042,0.042,0.042,0.049,0.039,0.031,0.017,0.057
2.416,-0.031,0.022,0.053,0.004,-0.043,0.038,0.04,0.042,0.031,0.02,0.004,0.053
2.418,-0.03,0.011,0.041,0.009,-0.036,0.025,0.04,0.04,0.023,0.014,0.001,0.05
2.42,-0.055,-0.015,0.04,0.035,-0.047,0.012,0.04,0.04,0.02,0.01,0.015,0.05
2.422,-0.129,-0.038,0.092,0.084,-0.11,0.027,0.04,0.04,0.02,0.01,0.025,0.046
2.424,-0.128,-0.036,0.092,0.082,-0.11,0.028,0.037,0.037,0.02,0.011,0.02,0.042
2.426,-0.088,-0.025,0.063,0.056,-0.075,0.018,0.034,0.034,0.02,0.008,0.012,0.038
2.428,-0.073,-0.019,0.054,0.046,-0.064,0.017,0.035,0.035,0.019,0.005,0.009,0.034
2.43,-0.07,-0.015,0.055,0.042,-0.062,0.02,0.035,0.035,0.015,0.005,0.005,0.03
2.432,-0.062,-0.007,0.055,0.034,-0.058,0.024,0.035,0.031,0.015,0.005,-0.003,0.03
2.434,-0.054,0.001,0.055,0.026,-0.055,0.028,0.032,0.029,0.015,0.002,-0.008,0.027
2.436,-0.046,0.009,0.055,0.018,-0.051,0.032,0.029,0.031,0.015,-0.001,-0.012,0.024
2.438,-0.047,0.008,0.055,0.019,-0.051,0.031,0.03,0.029,0.014,0.0,-0.016,0.025
2.44,-0.06,-0.005,0.055,0.032,-0.057,0.025,0.03,0.025,0.01,0.0,-0.02,0.025
2.442,-0.073,-0.017,0.056,0.045,-0.065,0.019,0.03,0.025,0.01,-0.004,-0.02,0.025
2.444,-0.075,-0.028,0.047,0.051,-0.061,0.009,0.03,0.026,0.01,-0.006,-0.02,0.025
2.446,-0.078,-0.043,0.035,0.061,-0.056,-0.005,0.03,0.023,0.01,-0.004,-0.02,0.025
2.448,-0.078,-0.049,0.029,0.063,-0.053,-0.01,0.03,0.02,0.01,-0.006,-0.02,0.025
2.45,-0.055,-0.035,0.02,0.045,-0.037,-0.007,0.03,0.02,0.01,-0.01,-0.02,0.025
2.452,-0.032,-0.027,0.005,0.03,-0.018,-0.01,0.03,0.02,0.006,-0.01,-0.02,0.021
2.454,-0.069,-0.016,0.053,0.043,-0.061,0.019,0.03,0.017,0.005,-0.009,-0.02,0.02
2.456,-0.092,-0.006,0.086,0.048,-0.089,0.04,0.03,0.014,0.005,-0.012,-0.02,0.02
2.458,-0.07,0.003,0.073,0.033,-0.072,0.037,0.03,0.015,0.005,-0.015,-0.02,0.02
2.46,-0.06,0.015,0.075,0.022,-0.068,0.045,0.03,0.015,0.005,-0.015,-0.02,0.02
2.462,-0.051,0.024,0.075,0.013,-0.064,0.05,0.026,0.011,0.001,-0.015,-0.02,0.02
2.464,-0.052,0.023,0.075,0.014,-0.063,0.048,0.025,0.01,0.0,-0.018,-0.02,0.02
2.466,-0.058,0.018,0.075,0.02,-0.067,0.046,0.025,0.01,0.0,-0.02,-0.02,0.02
2.468,-0.06,0.014,0.074,0.023,-0.068,0.044,0.025,0.01,0.0,-0.02,-0.02,0.019
2.47,-0.06,0.01,0.07,0.025,-0.065,0.04,0.025,0.01,0.0,-0.02,-0.02,0.015
2.472,-0.064,0.006,0.07,0.029,-0.067,0.037,0.025,0.01,0.0,-0.02,-0.02,0.015
2.474,-0.065,0.005,0.07,0.03,-0.068,0.037,0.025,0.011,-0.003,-0.023,-0.02,0.015
2.476,-0.066,0.004,0.07,0.031,-0.069,0.037,0.025,0.008,-0.005,-0.026,-0.02,0.015
2.478,-0.071,-0.001,0.07,0.036,-0.07,0.034,0.025,0.005,-0.006,-0.025,-0.02,0.015
2.48,-0.075,-0.005,0.07,0.04,-0.072,0.032,0.025,0.005,-0.01,-0.025,-0.02,0.015
2.482,-0.079,-0.009,0.07,0.044,-0.075,0.031,0.025,0.005,-0.01,-0.025,-0.018,0.015
2.484,-0.081,-0.014,0.067,0.047,-0.074,0.026,0.025,0.005,-0.013,-0.024,-0.033,0.015
2.486,-0.077,-0.013,0.064,0.045,-0.07,0.026,0.025,0.005,-0.015,-0.027,-0.04,0.015
2.488,-0.085,-0.02,0.065,0.052,-0.075,0.023,0.025,0.005,-0.016,-0.03,-0.034,0.014
2.49,-0.105,-0.04,0.065,0.072,-0.085,0.012,0.025,0.005,-0.02,-0.03,-0.035,0.01
2.492,-0.088,-0.023,0.065,0.055,-0.076,0.021,0.025,0.001,-0.02,-0.03,-0.031,0.01
2.494,-0.059,0.006,0.066,0.026,-0.062,0.036,0.025,0.0,-0.023,-0.031,-0.029,0.01
2.496,-0.064,-0.001,0.063,0.032,-0.063,0.03,0.025,0.0,-0.026,-0.028,-0.032,0.01
2.498,-0.107,-0.048,0.06,0.078,-0.083,0.006,0.025,0.0,-0.024,-0.034,-0.044,0.01
2.5,-0.135,-0.075,0.06,0.105,-0.097,-0.007,0.025,0.0,-0.02,-0.05,-0.06,0.01
2.502,-0.088,-0.028,0.06,0.058,-0.074,0.016,0.024,0.0,-0.02,-0.047,-0.057,0.01
2.504,-0.02,0.04,0.06,-0.01,-0.041,0.05,0.028,0.001,-0.021,-0.044,-0.054,0.01
2.506,-0.014,0.045,0.059,-0.016,-0.037,0.052,0.029,-0.003,-0.018,-0.046,-0.055,0.01
2.508,-0.071,-0.009,0.062,0.04,-0.067,0.026,0.024,-0.013,-0.015,-0.044,-0.055,0.01
2.51,-0.105,-0.045,0.06,0.075,-0.082,0.007,0.02,-0.02,-0.015,-0.04,-0.055,0.01
2.512,-0.068,-0.038,0.03,0.053,-0.048,-0.004,0.025,-0.016,-0.015,-0.04,-0.055,0.01
2.514,-0.096,-0.031,0.066,0.063,-0.081,0.018,0.05,-0.012,-0.012,-0.04,-0.055,0.011
2.516,-0.122,-0.029,0.093,0.075,-0.107,0.032,0.061,-0.008,-0.009,-0.04,-0.055,0.008
2.518,-0.083,-0.023,0.06,0.053,-0.071,0.018,0.054,-0.005,-0.01,-0.039,-0.054,0.005
2.52,-0.065,-0.015,0.05,0.04,-0.057,0.017,0.055,-0.005,-0.01,-0.035,-0.05,0.005
2.522,-0.117,-0.011,0.106,0.064,-0.112,0.047,0.055,-0.001,-0.006,-0.035,-0.05,0.005
2.524,-0.108,-0.005,0.102,0.056,-0.105,0.048,0.055,0.004,-0.004,-0.036,-0.05,0.005
2.526,-0.072,-0.009,0.063,0.041,-0.067,0.027,0.053,0.005,-0.006,-0.033,-0.05,0.005
2.528,-0.072,-0.024,0.048,0.048,-0.06,0.012,0.05,0.006,-0.004,-0.03,-0.05,0.005
2.53,-0.07,-0.03,0.04,0.05,-0.055,0.005,0.05,0.01,0.0,-0.03,-0.05,0.005
2.532,-0.043,-0.015,0.028,0.029,-0.035,0.006,0.05,0.014,0.0,-0.03,-0.05,0.005
2.534,-0.051,0.004,0.055,0.023,-0.053,0.029,0.051,0.016,-0.001,-0.031,-0.051,0.005
2.536,-0.076,-0.005,0.071,0.04,-0.074,0.033,0.048,0.013,0.002,-0.028,-0.048,0.005
2.538,-0.096,-0.038,0.058,0.067,-0.077,0.01,0.045,0.01,0.005,-0.025,-0.045,0.005
2.54,-0.115,-0.06,0.055,0.087,-0.085,-0.002,0.045,0.01,0.005,-0.025,-0.045,0.005
2.542,-0.108,-0.057,0.051,0.082,-0.079,-0.002,0.045,0.011,0.005,-0.025,-0.045,0.005
2.544,-0.101,-0.054,0.047,0.077,-0.074,-0.003,0.045,0.007,0.002,-0.025,-0.045,0.008
2.546,-0.098,-0.056,0.042,0.076,-0.069,-0.007,0.045,0.005,0.0,-0.025,-0.045,0.011
2.548,-0.095,-0.054,0.041,0.075,-0.068,-0.006,0.044,0.005,-0.001,-0.024,-0.045,0.01
2.55,-0.085,-0.05,0.035,0.067,-0.06,-0.007,0.04,0.005,-0.005,-0.02,-0.045,0.01
2.552,-0.054,-0.05,0.004,0.051,-0.029,-0.023,0.04,0.013,-0.005,-0.02,-0.045,0.014
2.554,-0.129,-0.051,0.078,0.09,-0.103,0.014,0.04,0.018,-0.008,-0.02,-0.046,0.015
2.556,-0.171,-0.047,0.125,0.109,-0.148,0.039,0.04,0.024,-0.011,-0.02,-0.043,0.015
2.558,-0.125,-0.038,0.087,0.081,-0.106,0.024,0.039,0.032,-0.009,-0.02,-0.04,0.015
2.56,-0.105,-0.03,0.075,0.067,-0.09,0.022,0.035,0.035,-0.005,-0.02,-0.04,0.015
2.562,-0.097,-0.026,0.071,0.061,-0.083,0.022,0.035,0.035,-0.005,-0.02,-0.036,0.019
2.564,-0.089,-0.02,0.07,0.054,-0.079,0.024,0.035,0.035,-0.005,-0.017,-0.035,0.021
2.566,-0.081,-0.01,0.071,0.046,-0.075,0.03,0.035,0.035,-0.005,-0.014,-0.033,0.019
2.568,-0.073,-0.004,0.069,0.038,-0.071,0.032,0.035,0.035,-0.005,-0.015,-0.029,0.021
2.57,-0.065,0.0,0.065,0.032,-0.065,0.032,0.035,0.035,-0.005,-0.015,-0.03,0.025
2.572,-0.057,0.008,0.065,0.024,-0.061,0.036,0.031,0.035,-0.001,-0.015,-0.031,0.025
2.574,-0.05,0.016,0.066,0.016,-0.058,0.04,0.029,0.035,0.0,-0.016,-0.027,0.025
2.576,-0.039,0.024,0.063,0.007,-0.051,0.043,0.031,0.035,0.0,-0.013,-0.025,0.025
2.578,-0.028,0.032,0.06,-0.002,-0.044,0.046,0.029,0.035,0.0,-0.01,-0.024,0.026
2.58,-0.025,0.035,0.06,-0.005,-0.043,0.047,0.03,0.035,0.0,-0.01,-0.02,0.03
2.582,-0.024,0.031,0.056,-0.004,-0.04,0.043,0.051,0.035,0.0,-0.01,-0.02,0.03
2.584,-0.028,0.027,0.055,0.0,-0.042,0.041,0.054,0.035,-0.001,-0.01,-0.017,0.03
2.586,-0.03,0.023,0.053,0.004,-0.042,0.038,0.049,0.035,0.002,-0.01,-0.015,0.03
2.588,-0.03,0.02,0.05,0.005,-0.04,0.035,0.05,0.035,0.005,-0.01,-0.015,0.029
2.59,-0.03,0.02,0.05,0.005,-0.04,0.035,0.05,0.035,0.005,-0.01,-0.015,0.025
2.592,-0.029,0.016,0.046,0.006,-0.038,0.031,0.046,0.035,0.005,-0.014,-0.019,0.025
2.594,-0.034,0.011,0.045,0.011,-0.04,0.028,0.044,0.035,0.005,-0.015,-0.02,0.022
2.596,-0.033,0.01,0.043,0.011,-0.038,0.026,0.046,0.035,0.005,-0.015,-0.02,0.019
2.598,-0.03,0.01,0.04,0.01,-0.035,0.025,0.044,0.035,0.006,-0.015,-0.02,0.02
2.6,-0.035,0.005,0.04,0.015,-0.038,0.022,0.04,0.035,0.01,-0.015,-0.02,0.02
2.602,-0.036,0.0,0.036,0.018,-0.036,0.017,0.04,0.035,0.01,-0.015,-0.024,0.016
2.604,-0.031,0.004,0.035,0.013,-0.033,0.019,0.041,0.035,0.01,-0.015,-0.025,0.014
2.606,-0.047,-0.014,0.033,0.03,-0.04,0.009,0.038,0.035,0.01,-0.015,-0.025,0.016
2.608,-0.066,-0.037,0.03,0.052,-0.047,-0.003,0.035,0.035,0.01,-0.015,-0.025,0.014
2.61,-0.055,-0.025,0.03,0.04,-0.042,0.002,0.035,0.035,0.01,-0.015,-0.025,0.01
2.612,-0.046,-0.02,0.026,0.033,-0.036,0.002,0.035,0.035,0.01,-0.015,-0.025,0.01
2.614,-0.042,-0.017,0.025,0.029,-0.033,0.004,0.032,0.035,0.007,-0.015,-0.028,0.011
2.616,-0.037,-0.013,0.024,0.025,-0.03,0.006,0.029,0.035,0.004,-0.015,-0.031,0.008
2.618,-0.027,-0.009,0.018,0.018,-0.022,0.004,0.03,0.035,0.005,-0.015,-0.03,0.005
2.62,-0.025,-0.005,0.02,0.015,-0.022,0.007,0.03,0.035,0.005,-0.015,-0.03,0.005
2.622,-0.051,-0.001,0.05,0.025,-0.05,0.024,0.026,0.035,0.005,-0.015,-0.03,0.001
2.624,-0.052,0.003,0.055,0.025,-0.054,0.029,0.024,0.035,0.005,-0.015,-0.033,-0.001
2.626,-0.04,0.007,0.047,0.016,-0.044,0.027,0.026,0.035,0.005,-0.015,-0.036,0.001
2.628,-0.033,0.011,0.044,0.011,-0.039,0.027,0.024,0.034,0.005,-0.015,-0.035,-0.001
2.63,-0.025,0.015,0.04,0.005,-0.033,0.027,0.02,0.035,0.005,-0.015,-0.035,-0.005
2.632,-0.015,0.021,0.036,-0.003,-0.026,0.028,0.02,0.052,0.005,-0.015,-0.035,-0.005
2.634,-0.021,0.009,0.031,0.006,-0.026,0.02,0.02,0.054,0.005,-0.014,-0.034,-0.004
2.636,-0.039,-0.007,0.032,0.023,-0.035,0.012,0.02,0.049,0.005,-0.018,-0.037,-0.007
2.638,-0.035,-0.018,0.017,0.026,-0.025,0.0,0.021,0.05,0.005,-0.028,-0.04,-0.01
2.64,-0.025,-0.03,-0.005,0.028,-0.01,-0.017,0.025,0.05,0.005,-0.035,-0.04,-0.01
2.642,-0.088,-0.044,0.044,0.066,-0.066,0.0,0.025,0.046,0.005,-0.031,-0.04,-0.01
2.644,-0.098,-0.04,0.058,0.069,-0.078,0.009,0.025,0.044,0.005,-0.029,-0.04,-0.007
2.646,-0.078,-0.032,0.046,0.055,-0.062,0.006,0.025,0.046,0.005,-0.03,-0.04,-0.004
2.648,-0.073,-0.028,0.044,0.05,-0.059,0.008,0.025,0.044,0.005,-0.03,-0.04,-0.005
2.65,-0.06,-0.02,0.04,0.04,-0.05,0.01,0.025,0.04,0.005,-0.03,-0.04,-0.005
2.652,-0.052,-0.016,0.036,0.034,-0.043,0.01,0.025,0.04,0.005,-0.03,-0.04,-0.005
2.654,-0.042,-0.01,0.033,0.026,-0.037,0.011,0.022,0.041,0.005,-0.03,-0.04,-0.005
2.656,-0.027,-0.001,0.026,0.014,-0.026,0.012,0.019,0.038,0.004,-0.03,-0.04,-0.005
2.658,-0.031,-0.002,0.029,0.016,-0.03,0.013,0.02,0.035,0.006,-0.029,-0.04,-0.005
2.66,-0.07,-0.015,0.055,0.042,-0.062,0.02,0.02,0.035,0.015,-0.025,-0.04,-0.005
2.662,-0.096,-0.023,0.073,0.059,-0.084,0.025,0.02,0.035,0.025,-0.025,-0.04,-0.001
2.664,-0.107,-0.034,0.073,0.07,-0.09,0.02,0.02,0.032,0.02,-0.025,-0.04,0.0
2.666,-0.113,-0.046,0.068,0.079,-0.091,0.011,0.02,0.029,0.012,-0.025,-0.04,0.0
2.668,-0.114,-0.05,0.064,0.081,-0.089,0.007,0.02,0.03,0.009,-0.025,-0.04,0.0
2.67,-0.105,-0.045,0.06,0.075,-0.082,0.007,0.02,0.03,0.005,-0.025,-0.04,0.0
2.672,-0.101,-0.045,0.056,0.073,-0.078,0.005,0.02,0.026,0.001,-0.025,-0.04,0.0
2.674,-0.094,-0.042,0.052,0.068,-0.073,0.005,0.02,0.024,-0.003,-0.026,-0.04,0.0
2.676,-0.088,-0.039,0.048,0.063,-0.068,0.004,0.02,0.025,-0.008,-0.023,-0.04,0.0
2.678,-0.084,-0.04,0.043,0.061,-0.064,0.001,0.02,0.024,-0.008,-0.02,-0.04,0.0
2.68,-0.075,-0.04,0.035,0.057,-0.055,-0.002,0.02,0.02,0.005,-0.02,-0.04,0.0
2.682,-0.063,-0.036,0.027,0.049,-0.044,-0.004,0.02,0.016,0.015,-0.02,-0.04,0.0
2.684,-0.054,-0.035,0.019,0.044,-0.036,-0.008,0.02,0.015,0.01,-0.02,-0.04,0.0
2.686,-0.044,-0.033,0.011,0.038,-0.027,-0.011,0.02,0.014,0.003,-0.02,-0.04,0.0
2.688,-0.033,-0.029,0.003,0.031,-0.018,-0.013,0.02,0.009,-0.002,-0.02,-0.04,0.0
2.69,-0.025,-0.03,-0.005,0.028,-0.01,-0.017,0.02,0.005,-0.01,-0.02,-0.04,0.0
2.692,-0.016,-0.031,-0.014,0.024,-0.001,-0.022,0.02,0.004,-0.015,-0.02,-0.036,0.0
2.694,-0.014,-0.024,-0.01,0.02,-0.002,-0.017,0.02,0.01,-0.012,-0.019,-0.035,0.0
2.696,-0.017,-0.017,-0.001,0.017,-0.008,-0.009,0.019,0.019,-0.009,-0.022,-0.035,0.0
2.698,-0.021,-0.014,0.007,0.017,-0.014,-0.004,0.022,0.027,-0.01,-0.025,-0.035,0.0
2.7,-0.025,-0.01,0.015,0.017,-0.02,0.002,0.03,0.035,-0.01,-0.025,-0.035,0.0
2.702,-0.025,-0.002,0.023,0.013,-0.024,0.01,0.026,0.044,-0.01,-0.025,-0.035,0.0
2.704,-0.028,0.003,0.031,0.012,-0.029,0.017,0.024,0.042,-0.011,-0.025,-0.032,0.0
2.706,-0.032,0.008,0.04,0.012,-0.037,0.024,0.025,0.04,-0.008,-0.025,-0.029,0.0
2.708,-0.036,0.009,0.045,0.013,-0.04,0.026,0.025,0.039,-0.005,-0.025,-0.03,0.0
2.71,-0.04,0.0,0.04,0.02,-0.04,0.02,0.025,0.035,-0.005,-0.025,-0.03,0.0
2.712,-0.048,-0.008,0.04,0.028,-0.044,0.016,0.025,0.035,-0.005,-0.025,-0.03,0.0
2.714,-0.056,-0.016,0.04,0.036,-0.048,0.012,0.025,0.036,-0.005,-0.025,-0.03,0.0
2.716,-0.063,-0.023,0.04,0.043,-0.051,0.008,0.025,0.033,-0.006,-0.025,-0.03,0.0
2.718,-0.064,-0.024,0.04,0.044,-0.052,0.007,0.025,0.03,-0.003,-0.025,-0.029,0.0
2.72,-0.06,-0.02,0.04,0.04,-0.05,0.01,0.025,0.03,0.01,-0.025,-0.025,0.0
2.722,-0.061,-0.02,0.04,0.04,-0.051,0.01,0.025,0.03,0.024,-0.022,-0.025,0.0
2.724,-0.054,-0.017,0.037,0.035,-0.046,0.01,0.025,0.027,0.023,-0.015,-0.025,0.0
2.726,-0.047,-0.014,0.033,0.03,-0.04,0.009,0.025,0.024,0.02,-0.019,-0.025,0.0
2.728,-0.044,-0.015,0.029,0.03,-0.036,0.006,0.024,0.025,0.019,-0.034,-0.025,0.0
2.73,-0.04,-0.015,0.025,0.027,-0.032,0.005,0.02,0.025,0.015,-0.045,-0.025,0.0
2.732,-0.032,-0.011,0.021,0.021,-0.026,0.005,0.02,0.021,0.015,-0.041,-0.021,0.0
2.734,-0.026,-0.01,0.016,0.018,-0.021,0.003,0.02,0.02,0.012,-0.039,-0.02,-0.003
2.736,-0.024,-0.008,0.016,0.016,-0.02,0.004,0.02,0.018,0.01,-0.04,-0.02,-0.005
2.738,-0.017,-0.005,0.012,0.01,-0.014,0.003,0.02,0.014,0.009,-0.04,-0.02,-0.006
2.74,-0.02,-0.005,0.015,0.012,-0.017,0.005,0.02,0.015,0.005,-0.04,-0.02,-0.01
2.742,-0.082,-0.002,0.08,0.042,-0.08,0.039,0.02,0.015,0.005,-0.036,-0.02,-0.01
2.744,-0.104,-0.027,0.077,0.066,-0.09,0.025,0.02,0.012,0.002,-0.035,-0.019,-0.009
2.746,-0.067,-0.042,0.025,0.054,-0.046,-0.008,0.02,0.009,0.0,-0.035,-0.022,-0.012
2.748,-0.047,-0.034,0.013,0.041,-0.03,-0.01,0.02,0.01,-0.001,-0.035,-0.025,-0.015
2.75,-0.065,-0.035,0.03,0.05,-0.047,-0.002,0.02,0.01,-0.005,-0.035,-0.025,-0.015
2.752,-0.023,-0.031,-0.007,0.028,-0.008,-0.019,0.02,0.006,-0.005,-0.031,-0.029,-0.015
2.754,-0.019,-0.03,-0.011,0.025,-0.004,-0.021,0.021,0.005,-0.008,-0.03,-0.03,-0.018
2.756,-0.036,-0.028,0.008,0.032,-0.022,-0.01,0.018,0.005,-0.01,-0.03,-0.032,-0.021
2.758,-0.042,-0.025,0.017,0.033,-0.029,-0.004,0.015,0.006,-0.011,-0.03,-0.035,-0.02
2.76,-0.055,-0.025,0.03,0.04,-0.042,0.002,0.015,0.01,-0.015,-0.03,-0.035,-0.02
2.762,-0.064,-0.021,0.044,0.042,-0.054,0.011,0.015,0.01,-0.015,-0.03,-0.035,-0.024
2.764,-0.063,-0.02,0.043,0.041,-0.053,0.011,0.016,0.009,-0.015,-0.027,-0.035,-0.025
2.766,-0.058,-0.018,0.04,0.038,-0.048,0.011,0.013,0.012,-0.015,-0.024,-0.035,-0.025
2.768,-0.054,-0.015,0.039,0.034,-0.046,0.012,0.01,0.015,-0.015,-0.025,-0.035,-0.024
2.77,-0.05,-0.015,0.035,0.032,-0.042,0.01,0.01,0.015,-0.015,-0.025,-0.035,-0.02
2.772,-0.042,-0.007,0.035,0.024,-0.038,0.014,0.01,0.015,-0.015,-0.025,-0.035,-0.02
2.774,-0.037,-0.001,0.036,0.019,-0.036,0.017,0.011,0.018,-0.015,-0.022,-0.035,-0.02
2.776,-0.031,0.002,0.033,0.015,-0.033,0.017,0.008,0.021,-0.015,-0.019,-0.035,-0.02
2.778,-0.023,0.006,0.03,0.008,-0.027,0.018,0.005,0.02,-0.015,-0.02,-0.035,-0.02
2.78,-0.02,0.01,0.03,0.005,-0.025,0.02,0.005,0.02,-0.015,-0.02,-0.035,-0.02
2.782,-0.025,0.006,0.03,0.009,-0.028,0.018,0.005,0.02,-0.015,-0.02,-0.035,-0.02
2.784,-0.022,0.005,0.027,0.008,-0.025,0.016,0.005,0.02,-0.015,-0.019,-0.038,-0.017
2.786,-0.021,0.003,0.024,0.008,-0.023,0.014,0.005,0.02,-0.015,-0.022,-0.041,-0.014
2.788,-0.026,0.0,0.025,0.012,-0.025,0.012,0.004,0.02,-0.015,-0.025,-0.04,-0.015
2.79,-0.025,0.0,0.025,0.012,-0.025,0.012,0.0,0.02,-0.015,-0.025,-0.04,-0.015
2.792,-0.025,-0.004,0.021,0.015,-0.022,0.008,0.0,0.02,-0.015,-0.025,-0.04,-0.015
2.794,-0.025,-0.005,0.02,0.015,-0.022,0.007,0.0,0.02,-0.015,-0.025,-0.04,-0.015
2.796,-0.026,-0.007,0.02,0.017,-0.023,0.006,0.0,0.02,-0.015,-0.025,-0.04,-0.015
2.798,-0.031,-0.01,0.021,0.021,-0.026,0.005,-0.001,0.02,-0.015,-0.026,-0.04,-0.014
2.8,-0.035,-0.01,0.025,0.022,-0.03,0.007,-0.005,0.02,-0.015,-0.03,-0.04,-0.01
2.802,-0.035,-0.014,0.021,0.025,-0.028,0.003,-0.005,0.02,-0.015,-0.03,-0.04,-0.01
2.804,-0.035,-0.014,0.02,0.025,-0.027,0.002,-0.005,0.02,-0.012,-0.03,-0.04,-0.01
2.806,-0.037,-0.019,0.017,0.028,-0.027,-0.001,-0.005,0.02,-0.01,-0.03,-0.04,-0.01
2.808,-0.05,-0.034,0.017,0.041,-0.033,-0.008,-0.005,0.02,-0.009,-0.03,-0.04,-0.01
2.81,-0.055,-0.04,0.015,0.047,-0.035,-0.012,-0.005,0.02,-0.005,-0.03,-0.04,-0.01
2.812,-0.004,-0.028,-0.024,0.016,0.011,-0.026,-0.001,0.02,-0.005,-0.026,-0.036,-0.01
2.814,0.0,-0.018,-0.019,0.009,0.01,-0.018,0.004,0.02,-0.006,-0.024,-0.031,-0.007
2.816,-0.027,-0.011,0.016,0.019,-0.021,0.003,0.005,0.02,-0.003,-0.026,-0.03,-0.004
2.818,-0.026,-0.003,0.023,0.014,-0.024,0.01,0.006,0.02,0.0,-0.024,-0.029,-0.005
2.82,-0.01,0.005,0.015,0.002,-0.013,0.01,0.01,0.02,0.0,-0.02,-0.025,-0.005
2.822,-0.035,0.013,0.048,0.011,-0.042,0.031,0.014,0.02,0.0,-0.02,-0.02,-0.001
2.824,-0.034,0.022,0.056,0.006,-0.045,0.038,0.015,0.02,0.003,-0.02,-0.02,0.001
2.826,-0.022,0.026,0.048,-0.002,-0.036,0.036,0.016,0.02,0.006,-0.02,-0.018,-0.001
2.828,-0.026,0.025,0.051,0.0,-0.039,0.037,0.021,0.02,0.005,-0.019,-0.015,0.001
2.83,-0.025,0.025,0.05,0.0,-0.038,0.037,0.025,0.02,0.005,-0.015,-0.015,0.005
2.832,-0.021,0.025,0.046,-0.002,-0.034,0.035,0.025,0.02,0.009,-0.015,-0.015,0.005
2.834,-0.018,0.026,0.044,-0.005,-0.032,0.036,0.028,0.02,0.011,-0.016,-0.015,0.004
2.836,-0.025,0.02,0.046,0.002,-0.036,0.033,0.032,0.02,0.009,-0.013,-0.015,0.007
2.838,-0.02,0.025,0.044,-0.003,-0.032,0.034,0.036,0.02,0.011,-0.01,-0.015,0.01
2.84,0.01,0.05,0.04,-0.03,-0.015,0.045,0.035,0.02,0.015,-0.01,-0.015,0.01
2.842,0.008,0.048,0.04,-0.028,-0.016,0.043,0.031,0.02,0.015,-0.01,-0.015,0.01
2.844,0.0,0.04,0.04,-0.02,-0.02,0.04,0.029,0.021,0.018,-0.011,-0.012,0.013
2.846,0.017,0.058,0.04,-0.038,-0.012,0.048,0.031,0.033,0.02,-0.008,-0.009,0.016
2.848,0.036,0.076,0.04,-0.056,-0.002,0.057,0.029,0.047,0.021,-0.005,-0.01,0.015
2.85,0.03,0.065,0.035,-0.048,-0.003,0.05,0.025,0.05,0.025,-0.005,-0.01,0.015
2.852,0.029,0.06,0.031,-0.045,-0.001,0.045,0.025,0.05,0.025,-0.001,-0.01,0.019
2.854,-0.003,0.057,0.06,-0.028,-0.032,0.059,0.025,0.05,0.028,0.0,-0.01,0.021
2.856,-0.025,0.053,0.078,-0.014,-0.052,0.065,0.025,0.05,0.03,0.002,-0.01,0.019
2.858,-0.019,0.049,0.068,-0.015,-0.043,0.059,0.024,0.05,0.031,0.005,-0.01,0.022
2.86,-0.02,0.045,0.065,-0.013,-0.043,0.055,0.02,0.05,0.035,0.005,-0.01,0.03
2.862,-0.021,0.04,0.061,-0.009,-0.041,0.05,0.02,0.05,0.035,0.013,-0.002,0.034
2.864,-0.011,0.046,0.057,-0.018,-0.034,0.051,0.02,0.05,0.035,0.021,0.004,0.039
2.866,-0.001,0.051,0.053,-0.025,-0.027,0.051,0.02,0.05,0.033,0.029,0.007,0.039
2.868,0.009,0.059,0.05,-0.034,-0.021,0.054,0.019,0.05,0.038,0.037,0.011,0.043
2.87,0.035,0.085,0.05,-0.06,-0.008,0.067,0.015,0.05,0.055,0.04,0.015,0.055
2.872,0.07,0.116,0.046,-0.094,0.012,0.081,0.015,0.05,0.052,0.032,0.019,0.051
2.874,0.075,0.117,0.042,-0.096,0.017,0.079,0.016,0.05,0.049,0.026,0.024,0.05
2.876,0.067,0.105,0.038,-0.086,0.014,0.071,0.013,0.05,0.05,0.024,0.024,0.049
2.878,0.064,0.098,0.034,-0.082,0.015,0.066,0.01,0.05,0.05,0.018,0.018,0.044
2.88,0.06,0.09,0.03,-0.075,0.015,0.06,0.01,0.05,0.05,0.015,0.015,0.045
2.882,0.056,0.082,0.026,-0.069,0.015,0.053,0.01,0.05,0.05,0.027,0.023,0.062
2.884,0.05,0.075,0.025,-0.063,0.012,0.049,0.011,0.047,0.05,0.037,0.031,0.067
2.886,0.041,0.064,0.023,-0.052,0.008,0.043,0.008,0.045,0.05,0.043,0.039,0.063
2.888,0.052,0.072,0.02,-0.062,0.016,0.045,0.005,0.044,0.05,0.053,0.048,0.067
2.89,0.095,0.115,0.02,-0.105,0.037,0.067,0.005,0.04,0.05,0.06,0.055,0.08
2.892,0.126,0.146,0.02,-0.136,0.053,0.083,0.005,0.04,0.05,0.056,0.051,0.085
2.894,0.135,0.155,0.02,-0.145,0.057,0.087,0.006,0.037,0.05,0.054,0.049,0.085
2.896,0.135,0.155,0.02,-0.145,0.057,0.087,0.002,0.034,0.05,0.056,0.05,0.085
2.898,0.135,0.155,0.02,-0.145,0.057,0.087,-0.008,0.035,0.05,0.054,0.05,0.085
2.9,0.135,0.155,0.02,-0.145,0.057,0.087,-0.015,0.035,0.05,0.05,0.05,0.085
2.902,0.138,0.159,0.02,-0.149,0.058,0.089,-0.011,0.031,0.05,0.05,0.05,0.085
2.904,0.107,0.124,0.017,-0.116,0.045,0.07,-0.007,0.03,0.051,0.051,0.051,0.086
2.906,0.051,0.066,0.014,-0.059,0.018,0.04,-0.003,0.028,0.046,0.047,0.045,0.082
2.908,0.015,0.031,0.015,-0.023,0.0,0.023,0.001,0.025,0.039,0.038,0.032,0.073
2.91,0.015,0.03,0.015,-0.023,0.0,0.022,0.005,0.025,0.035,0.03,0.025,0.065
2.912,0.011,0.026,0.015,-0.019,-0.002,0.021,0.009,0.021,0.027,0.022,0.017,0.057
2.914,0.007,0.022,0.015,-0.015,-0.004,0.018,0.014,0.019,0.022,0.014,0.009,0.049
2.916,0.003,0.018,0.016,-0.011,-0.007,0.017,0.012,0.021,0.016,0.005,0.001,0.041
2.918,0.0,0.014,0.014,-0.007,-0.008,0.014,0.004,0.019,0.009,-0.001,-0.007,0.034
2.92,-0.005,0.01,0.015,-0.003,-0.01,0.012,0.0,0.015,0.005,-0.005,-0.015,0.03
2.922,-0.026,0.007,0.032,0.009,-0.03,0.02,-0.008,0.015,-0.014,-0.02,-0.031,0.026
2.924,-0.036,-0.005,0.031,0.02,-0.034,0.013,-0.014,0.015,-0.035,-0.04,-0.046,0.024
2.926,-0.047,-0.025,0.022,0.036,-0.034,-0.002,-0.013,0.015,-0.04,-0.045,-0.049,0.026
2.928,-0.046,-0.026,0.019,0.036,-0.033,-0.004,-0.009,0.015,-0.034,-0.039,-0.044,0.024
2.93,-0.01,0.005,0.015,0.002,-0.013,0.01,-0.01,0.015,-0.035,-0.04,-0.045,0.02
2.932,0.021,0.032,0.011,-0.027,0.005,0.021,-0.01,0.015,-0.036,-0.041,-0.045,0.02
2.934,0.026,0.033,0.007,-0.03,0.009,0.02,-0.007,0.012,-0.032,-0.037,-0.045,0.02
2.936,0.028,0.029,0.002,-0.029,0.013,0.015,-0.004,0.009,-0.029,-0.035,-0.045,0.02
2.938,0.028,0.029,0.001,-0.029,0.013,0.016,-0.005,0.01,-0.03,-0.035,-0.045,0.019
2.94,0.01,0.025,0.015,-0.018,-0.003,0.02,-0.005,0.01,-0.03,-0.035,-0.045,0.015
2.942,-0.004,0.025,0.029,-0.01,-0.017,0.026,-0.001,0.01,-0.026,-0.036,-0.041,0.015
2.944,-0.002,0.026,0.028,-0.012,-0.015,0.027,0.001,0.01,-0.024,-0.032,-0.04,0.016
2.946,-0.002,0.023,0.025,-0.011,-0.013,0.024,-0.001,0.01,-0.026,-0.047,-0.04,0.013
2.948,-0.005,0.02,0.024,-0.008,-0.014,0.022,0.001,0.009,-0.024,-0.067,-0.04,0.01
2.95,0.0,0.02,0.02,-0.01,-0.01,0.02,0.005,0.005,-0.02,-0.06,-0.04,0.01
2.952,-0.004,0.016,0.02,-0.006,-0.012,0.017,0.005,0.005,-0.02,-0.055,-0.04,0.01
2.954,-0.006,0.014,0.021,-0.004,-0.014,0.017,0.004,0.005,-0.021,-0.055,-0.041,0.011
2.956,-0.002,0.016,0.018,-0.007,-0.01,0.017,0.007,0.005,-0.018,-0.053,-0.038,0.008
2.958,-0.001,0.013,0.015,-0.007,-0.009,0.014,0.01,0.005,-0.015,-0.05,-0.035,0.005
2.96,-0.01,0.005,0.015,0.002,-0.013,0.01,0.01,0.005,-0.015,-0.05,-0.035,0.005
2.962,-0.01,0.001,0.011,0.005,-0.011,0.006,0.01,0.004,-0.015,-0.046,-0.035,0.005
2.964,-0.012,-0.002,0.009,0.007,-0.01,0.003,0.013,0.01,-0.012,-0.041,-0.035,0.006
2.966,-0.02,-0.009,0.011,0.014,-0.015,0.001,0.016,0.019,-0.009,-0.04,-0.035,0.002
2.968,-0.025,-0.017,0.009,0.021,-0.017,-0.004,0.014,0.027,-0.011,-0.039,-0.035,-0.007
2.97,-0.02,-0.02,0.0,0.02,-0.01,-0.01,0.015,0.035,-0.01,-0.035,-0.035,-0.015
2.972,-0.013,-0.022,-0.008,0.018,-0.002,-0.015,0.035,0.041,0.006,-0.033,-0.036,-0.023
