Time (s),i,ii,iii,avr,avl,avf,v1,v2,v3,v4,v5,v6
0.0,0.013,0.052,0.039,-0.033,-0.013,0.046,-0.4185,-0.232,-0.195,-0.161,-0.142,0.033
0.001,0.0145,0.0535,0.0395,-0.0345,-0.0125,0.047,-0.4165,-0.2445,-0.209,-0.1745,-0.1495,0.0205
0.002,0.016,0.0565,0.0405,-0.0365,-0.0125,0.049,-0.4155,-0.243,-0.2085,-0.175,-0.155,0.014
0.003,0.0165,0.0635,0.047,-0.04,-0.0155,0.0555,-0.4125,-0.24,-0.2045,-0.1735,-0.1585,0.0085
0.004,0.009,0.0625,0.0535,-0.036,-0.022,0.0585,-0.4145,-0.2475,-0.214,-0.183,-0.1705,-0.0065
0.005,0.0095,0.06,0.05,-0.035,-0.02,0.055,-0.4145,-0.251,-0.221,-0.192,-0.183,-0.0075
0.006,0.0095,0.046,0.036,-0.028,-0.0135,0.0415,-0.4145,-0.2525,-0.226,-0.1965,-0.171,-0.004
0.007,0.0085,0.034,0.0255,-0.021,-0.0085,0.0295,-0.412,-0.2485,-0.226,-0.1935,-0.165,-0.0035
0.008,0.005,0.031,0.026,-0.018,-0.011,0.029,-0.4085,-0.2515,-0.228,-0.194,-0.169,-0.0015
0.009,-0.003,0.0355,0.0385,-0.0165,-0.021,0.037,-0.4105,-0.2565,-0.234,-0.2,-0.175,-0.0065
0.01,-0.0055,0.0325,0.0375,-0.0135,-0.0215,0.035,-0.411,-0.2565,-0.2365,-0.2045,-0.18,-0.0085
0.011,-0.0045,0.029,0.0335,-0.0125,-0.019,0.0315,-0.41,-0.258,-0.2375,-0.207,-0.181,-0.0105
0.012,-0.006,0.025,0.031,-0.01,-0.0185,0.0285,-0.4085,-0.258,-0.239,-0.2065,-0.1845,-0.014
0.013,-0.011,0.0195,0.0305,-0.0045,-0.021,0.0255,-0.41,-0.2625,-0.2415,-0.2105,-0.1875,-0.0185
0.014,-0.009,0.0305,0.0395,-0.011,-0.0245,0.035,-0.4135,-0.2655,-0.244,-0.215,-0.1945,-0.0235
0.015,-0.008,0.038,0.046,-0.015,-0.027,0.042,-0.418,-0.274,-0.2515,-0.222,-0.201,-0.028
0.016,-0.0035,0.0395,0.0435,-0.018,-0.0235,0.0415,-0.418,-0.274,-0.253,-0.224,-0.199,-0.0275
0.017,-0.007,0.041,0.048,-0.017,-0.0275,0.0445,-0.4125,-0.265,-0.249,-0.222,-0.202,-0.0255
0.018,-0.0135,0.037,0.05,-0.012,-0.0315,0.0435,-0.414,-0.2715,-0.2555,-0.2285,-0.209,-0.0325
0.019,-0.011,0.026,0.037,-0.0075,-0.024,0.0315,-0.4135,-0.274,-0.2605,-0.2335,-0.2075,-0.0325
0.02,-0.022,0.0225,0.045,-0.0005,-0.0335,0.034,-0.411,-0.2775,-0.2635,-0.238,-0.209,-0.035
0.021,-0.023,0.027,0.05,-0.002,-0.0365,0.039,-0.4095,-0.2825,-0.266,-0.2425,-0.2195,-0.0415
0.022,-0.013,0.028,0.041,-0.0075,-0.027,0.035,-0.4095,-0.282,-0.266,-0.243,-0.2225,-0.041
0.023,-0.0095,0.019,0.0285,-0.005,-0.019,0.024,-0.4075,-0.277,-0.263,-0.2405,-0.217,-0.0365
0.024,-0.01,0.011,0.021,-0.001,-0.0155,0.0165,-0.412,-0.2805,-0.2655,-0.243,-0.2205,-0.035
0.025,-0.014,0.0095,0.023,0.002,-0.0185,0.0165,-0.4205,-0.2895,-0.2765,-0.252,-0.2275,-0.042
0.026,-0.022,0.0065,0.0285,0.0075,-0.0255,0.0175,-0.4215,-0.292,-0.28,-0.2555,-0.2315,-0.049
0.027,-0.0275,0.0125,0.04,0.0075,-0.034,0.0265,-0.422,-0.296,-0.284,-0.259,-0.237,-0.052
0.028,-0.036,0.003,0.0385,0.016,-0.037,0.021,-0.4155,-0.293,-0.282,-0.2575,-0.236,-0.0495
0.029,-0.04,-0.011,0.029,0.025,-0.0345,0.009,-0.4095,-0.29,-0.2795,-0.255,-0.2335,-0.043
0.03,-0.0345,-0.0055,0.0295,0.02,-0.032,0.012,-0.4105,-0.292,-0.2845,-0.2585,-0.235,-0.043
0.031,-0.0395,0.0075,0.047,0.016,-0.0435,0.0275,-0.416,-0.2995,-0.293,-0.2675,-0.2435,-0.051
0.032,-0.0285,0.0185,0.0475,0.0045,-0.038,0.0335,-0.4245,-0.312,-0.3055,-0.282,-0.257,-0.0615
0.033,-0.021,0.0195,0.041,0.0005,-0.031,0.0305,-0.425,-0.3135,-0.309,-0.285,-0.2625,-0.068
0.034,-0.038,0.014,0.052,0.012,-0.045,0.033,-0.417,-0.309,-0.3085,-0.283,-0.261,-0.0625
0.035,-0.041,0.0145,0.055,0.013,-0.048,0.035,-0.4155,-0.311,-0.3105,-0.2845,-0.262,-0.0645
0.036,-0.05,0.016,0.066,0.0165,-0.058,0.041,-0.412,-0.3135,-0.313,-0.287,-0.2725,-0.0695
0.037,-0.0505,0.005,0.055,0.023,-0.053,0.03,-0.407,-0.312,-0.3145,-0.292,-0.2735,-0.0645
0.038,-0.0455,0.0065,0.0525,0.019,-0.049,0.0295,-0.407,-0.315,-0.32,-0.2955,-0.2735,-0.0745
0.039,-0.044,0.0135,0.0575,0.0145,-0.0505,0.036,-0.4085,-0.315,-0.323,-0.298,-0.2805,-0.0825
0.04,-0.039,0.008,0.0475,0.0155,-0.043,0.028,-0.4075,-0.3145,-0.326,-0.3,-0.2805,-0.0755
0.041,-0.0505,0.007,0.0575,0.0215,-0.054,0.033,-0.398,-0.3195,-0.3335,-0.3065,-0.287,-0.0795
0.042,-0.053,0.0075,0.0605,0.0225,-0.0565,0.0345,-0.4005,-0.319,-0.3315,-0.3065,-0.295,-0.083
0.043,-0.062,0.005,0.067,0.028,-0.0645,0.0365,-0.412,-0.3185,-0.329,-0.304,-0.2915,-0.068
0.044,-0.0695,-0.0025,0.0665,0.036,-0.068,0.032,-0.4155,-0.3235,-0.333,-0.306,-0.289,-0.068
0.045,-0.064,-0.002,0.062,0.033,-0.063,0.03,-0.4045,-0.323,-0.3335,-0.305,-0.297,-0.078
0.046,-0.06,0.0035,0.0635,0.028,-0.0615,0.0335,-0.3965,-0.319,-0.332,-0.306,-0.3015,-0.079
0.047,-0.064,-0.0035,0.0605,0.0335,-0.062,0.0285,-0.3995,-0.3245,-0.338,-0.309,-0.303,-0.0785
0.048,-0.074,-0.012,0.062,0.0425,-0.068,0.025,-0.396,-0.3255,-0.3405,-0.31,-0.3045,-0.0825
0.049,-0.068,-0.012,0.056,0.04,-0.062,0.0225,-0.3955,-0.325,-0.341,-0.313,-0.3065,-0.086
0.05,-0.06,-0.011,0.0495,0.0355,-0.055,0.0195,-0.3975,-0.3295,-0.3475,-0.319,-0.312,-0.087
0.051,-0.063,-0.0085,0.0545,0.0355,-0.059,0.023,-0.397,-0.33,-0.349,-0.3215,-0.316,-0.089
0.052,-0.0625,-0.006,0.0565,0.034,-0.0595,0.0255,-0.398,-0.336,-0.3545,-0.329,-0.3215,-0.0935
0.053,-0.055,-0.008,0.0465,0.0315,-0.0505,0.0195,-0.3965,-0.3375,-0.3575,-0.3325,-0.3265,-0.099
0.054,-0.0525,-0.0115,0.041,0.0315,-0.0465,0.015,-0.3965,-0.3385,-0.36,-0.3365,-0.3285,-0.099
0.055,-0.062,-0.018,0.044,0.0395,-0.053,0.0135,-0.3925,-0.3415,-0.361,-0.338,-0.3295,-0.1005
0.056,-0.07,-0.0165,0.0535,0.0425,-0.0615,0.019,-0.388,-0.3345,-0.358,-0.3355,-0.327,-0.0965
0.057,-0.0695,-0.0205,0.0485,0.0445,-0.059,0.0145,-0.3865,-0.335,-0.359,-0.339,-0.3245,-0.0935
0.058,-0.066,-0.027,0.039,0.0465,-0.0525,0.006,-0.386,-0.337,-0.354,-0.33,-0.319,-0.0935
0.059,-0.0705,-0.0225,0.0475,0.046,-0.059,0.013,-0.3795,-0.3335,-0.35,-0.327,-0.319,-0.094
0.06,-0.0745,-0.0265,0.048,0.05,-0.0615,0.011,-0.3805,-0.3355,-0.352,-0.332,-0.326,-0.0955
0.061,-0.0695,-0.03,0.0395,0.0495,-0.0545,0.005,-0.386,-0.34,-0.357,-0.337,-0.328,-0.0935
0.062,-0.0715,-0.0305,0.041,0.051,-0.056,0.0055,-0.3815,-0.3375,-0.357,-0.3385,-0.3265,-0.095
0.063,-0.07,-0.028,0.042,0.049,-0.056,0.007,-0.385,-0.3415,-0.36,-0.341,-0.3315,-0.1
0.064,-0.069,-0.0285,0.0405,0.0485,-0.0545,0.0065,-0.3865,-0.3465,-0.3675,-0.3455,-0.336,-0.1055
0.065,-0.0755,-0.0235,0.052,0.049,-0.0635,0.0145,-0.39,-0.35,-0.372,-0.349,-0.34,-0.1075
0.066,-0.078,-0.025,0.053,0.0515,-0.0655,0.0145,-0.396,-0.3535,-0.377,-0.355,-0.345,-0.112
0.067,-0.081,-0.0435,0.0375,0.062,-0.059,-0.003,-0.3885,-0.347,-0.374,-0.351,-0.3405,-0.1105
0.068,-0.082,-0.0465,0.036,0.064,-0.059,-0.005,-0.387,-0.3485,-0.376,-0.353,-0.3375,-0.1085
0.069,-0.081,-0.0365,0.045,0.0585,-0.063,0.0045,-0.39,-0.3555,-0.385,-0.3605,-0.34,-0.108
0.07,-0.08,-0.027,0.053,0.053,-0.0665,0.013,-0.3915,-0.355,-0.383,-0.3595,-0.347,-0.1105
0.071,-0.0815,-0.0215,0.06,0.0515,-0.071,0.0195,-0.395,-0.354,-0.378,-0.3555,-0.3565,-0.1185
0.072,-0.0815,-0.018,0.064,0.0495,-0.0725,0.0235,-0.3955,-0.3595,-0.3835,-0.361,-0.3665,-0.1215
0.073,-0.076,-0.017,0.059,0.046,-0.0675,0.021,-0.399,-0.362,-0.387,-0.366,-0.361,-0.122
0.074,-0.078,-0.0215,0.0565,0.0495,-0.067,0.018,-0.4005,-0.363,-0.387,-0.365,-0.3535,-0.122
0.075,-0.083,-0.029,0.054,0.056,-0.0685,0.0125,-0.3995,-0.365,-0.3925,-0.368,-0.3605,-0.1245
0.076,-0.077,-0.0355,0.0415,0.056,-0.0595,0.003,-0.3965,-0.3615,-0.3925,-0.3695,-0.365,-0.129
0.077,-0.074,-0.039,0.035,0.056,-0.0545,-0.0015,-0.3955,-0.363,-0.3925,-0.371,-0.369,-0.1285
0.078,-0.0805,-0.045,0.0355,0.0625,-0.058,-0.0045,-0.391,-0.359,-0.39,-0.3705,-0.374,-0.1325
0.079,-0.0865,-0.0475,0.0395,0.0665,-0.063,-0.0035,-0.3925,-0.359,-0.3915,-0.3705,-0.374,-0.13
0.08,-0.0845,-0.0485,0.036,0.066,-0.0605,-0.0055,-0.3975,-0.3615,-0.3945,-0.3705,-0.3715,-0.1275
0.081,-0.0745,-0.043,0.0315,0.0585,-0.053,-0.0055,-0.391,-0.3585,-0.3925,-0.371,-0.376,-0.135
0.082,-0.074,-0.0345,0.0395,0.054,-0.0565,0.0025,-0.3915,-0.3615,-0.3955,-0.375,-0.3795,-0.1365
0.083,-0.075,-0.0425,0.0325,0.0585,-0.0535,-0.0045,-0.393,-0.3615,-0.395,-0.3765,-0.378,-0.137
0.084,-0.0825,-0.0535,0.029,0.0675,-0.056,-0.012,-0.387,-0.36,-0.3935,-0.375,-0.378,-0.137
0.085,-0.0875,-0.051,0.0365,0.069,-0.062,-0.007,-0.39,-0.3595,-0.3935,-0.374,-0.377,-0.1365
0.086,-0.078,-0.0475,0.0305,0.0625,-0.054,-0.008,-0.3965,-0.3625,-0.396,-0.3735,-0.3765,-0.1365
0.087,-0.076,-0.0475,0.0285,0.0615,-0.0525,-0.009,-0.389,-0.36,-0.395,-0.3715,-0.3755,-0.1365
0.088,-0.0745,-0.054,0.0205,0.064,-0.0475,-0.0165,-0.381,-0.354,-0.3885,-0.368,-0.371,-0.1325
0.089,-0.0725,-0.0515,0.021,0.0615,-0.047,-0.015,-0.381,-0.3555,-0.389,-0.3665,-0.371,-0.132
0.09,-0.076,-0.041,0.035,0.058,-0.0555,-0.003,-0.38,-0.357,-0.3895,-0.3655,-0.3735,-0.135
0.091,-0.081,-0.046,0.035,0.063,-0.058,-0.005,-0.38,-0.3555,-0.3885,-0.367,-0.3795,-0.1375
0.092,-0.0835,-0.0475,0.036,0.065,-0.0595,-0.0055,-0.383,-0.3565,-0.391,-0.3705,-0.387,-0.1455
0.093,-0.082,-0.045,0.037,0.063,-0.059,-0.004,-0.383,-0.3555,-0.391,-0.3705,-0.3895,-0.1485
0.094,-0.084,-0.051,0.0335,0.067,-0.059,-0.008,-0.3825,-0.3565,-0.393,-0.3705,-0.393,-0.1515
0.095,-0.0835,-0.049,0.0345,0.066,-0.059,-0.007,-0.383,-0.356,-0.3905,-0.3695,-0.393,-0.149
0.096,-0.082,-0.049,0.0335,0.065,-0.058,-0.0075,-0.382,-0.3535,-0.389,-0.371,-0.3915,-0.1465
0.097,-0.086,-0.047,0.039,0.0665,-0.0625,-0.0035,-0.3815,-0.3565,-0.3925,-0.3755,-0.392,-0.144
0.098,-0.0835,-0.0385,0.045,0.0605,-0.064,0.0035,-0.3815,-0.3565,-0.3935,-0.3735,-0.3915,-0.1385
0.099,-0.0775,-0.0385,0.039,0.058,-0.058,0.0005,-0.3845,-0.3555,-0.393,-0.3715,-0.3895,-0.1405
0.1,-0.075,-0.032,0.0425,0.053,-0.0585,0.0055,-0.3835,-0.3525,-0.389,-0.3705,-0.3855,-0.1335
0.101,-0.076,-0.0365,0.0395,0.056,-0.058,0.002,-0.382,-0.354,-0.3905,-0.3745,-0.391,-0.1385
0.102,-0.075,-0.0545,0.02,0.0645,-0.0475,-0.017,-0.379,-0.3525,-0.387,-0.3695,-0.39,-0.1405
0.103,-0.078,-0.0655,0.012,0.0715,-0.045,-0.0265,-0.372,-0.344,-0.3795,-0.362,-0.381,-0.131
0.104,-0.087,-0.069,0.018,0.0775,-0.0525,-0.025,-0.3705,-0.3445,-0.38,-0.363,-0.382,-0.132
0.105,-0.096,-0.075,0.021,0.085,-0.0585,-0.027,-0.37,-0.3415,-0.3755,-0.3595,-0.378,-0.129
0.106,-0.0865,-0.0715,0.015,0.079,-0.051,-0.028,-0.377,-0.3465,-0.3795,-0.3655,-0.378,-0.1305
0.107,-0.085,-0.0605,0.0245,0.0725,-0.055,-0.018,-0.381,-0.3525,-0.385,-0.3725,-0.3825,-0.1335
0.108,-0.0955,-0.0615,0.0335,0.078,-0.0645,-0.014,-0.3795,-0.349,-0.383,-0.367,-0.3805,-0.1325
0.109,-0.088,-0.0575,0.0305,0.0725,-0.0595,-0.013,-0.3825,-0.3505,-0.3855,-0.3675,-0.3825,-0.1325
0.11,-0.09,-0.0685,0.022,0.079,-0.056,-0.023,-0.3825,-0.351,-0.3835,-0.37,-0.3875,-0.1355
0.111,-0.095,-0.0725,0.0225,0.0835,-0.0585,-0.025,-0.3805,-0.349,-0.382,-0.368,-0.387,-0.136
0.112,-0.091,-0.0665,0.0245,0.0785,-0.0575,-0.021,-0.38,-0.3485,-0.3865,-0.3685,-0.39,-0.1365
0.113,-0.088,-0.063,0.025,0.0755,-0.0565,-0.019,-0.38,-0.348,-0.385,-0.3685,-0.3935,-0.1425
0.114,-0.0965,-0.056,0.0405,0.076,-0.0685,-0.0075,-0.379,-0.3475,-0.3845,-0.3705,-0.393,-0.144
0.115,-0.091,-0.0575,0.0335,0.074,-0.0625,-0.012,-0.3765,-0.347,-0.385,-0.3705,-0.3885,-0.1395
0.116,-0.0825,-0.054,0.029,0.068,-0.056,-0.012,-0.3755,-0.346,-0.381,-0.3685,-0.384,-0.137
0.117,-0.092,-0.058,0.034,0.0745,-0.063,-0.0115,-0.373,-0.344,-0.38,-0.37,-0.3905,-0.1435
0.118,-0.0935,-0.0515,0.042,0.072,-0.068,-0.0045,-0.373,-0.3415,-0.3785,-0.367,-0.393,-0.141
0.119,-0.0905,-0.0455,0.045,0.068,-0.0675,0.0,-0.376,-0.346,-0.382,-0.3685,-0.3865,-0.1415
0.12,-0.087,-0.052,0.0355,0.069,-0.0615,-0.008,-0.3765,-0.3495,-0.3845,-0.373,-0.3855,-0.1405
0.121,-0.0885,-0.0465,0.042,0.067,-0.0655,-0.002,-0.375,-0.3375,-0.3755,-0.365,-0.3805,-0.1335
0.122,-0.0935,-0.0615,0.032,0.0775,-0.063,-0.0145,-0.365,-0.331,-0.3715,-0.3615,-0.3875,-0.1325
0.123,-0.0905,-0.0725,0.018,0.0815,-0.054,-0.027,-0.3595,-0.331,-0.368,-0.3585,-0.378,-0.124
0.124,-0.0835,-0.0635,0.02,0.0735,-0.052,-0.0215,-0.3635,-0.3365,-0.3705,-0.3535,-0.37,-0.132
0.125,-0.084,-0.0605,0.024,0.072,-0.054,-0.018,-0.3665,-0.338,-0.374,-0.356,-0.3875,-0.1415
0.126,-0.0875,-0.0585,0.029,0.073,-0.0585,-0.0145,-0.3625,-0.3355,-0.3725,-0.3595,-0.3895,-0.1395
0.127,-0.0905,-0.0555,0.0355,0.0725,-0.063,-0.0095,-0.3625,-0.3425,-0.3765,-0.3645,-0.388,-0.1335
0.128,-0.09,-0.045,0.045,0.067,-0.0675,0.0005,-0.37,-0.3425,-0.374,-0.364,-0.3825,-0.137
0.129,-0.0875,-0.0405,0.047,0.064,-0.0675,0.0035,-0.3685,-0.3385,-0.3725,-0.3605,-0.3835,-0.1405
0.13,-0.0955,-0.051,0.0445,0.073,-0.07,-0.0025,-0.361,-0.3345,-0.3715,-0.359,-0.383,-0.136
0.131,-0.093,-0.046,0.047,0.0695,-0.07,0.001,-0.3545,-0.3295,-0.3685,-0.3555,-0.379,-0.131
0.132,-0.0895,-0.039,0.05,0.064,-0.07,0.0055,-0.352,-0.3295,-0.37,-0.356,-0.3775,-0.126
0.133,-0.0965,-0.041,0.055,0.0685,-0.0755,0.0075,-0.348,-0.328,-0.371,-0.3575,-0.3755,-0.1305
0.134,-0.0955,-0.0445,0.051,0.07,-0.0735,0.0035,-0.35,-0.3335,-0.373,-0.359,-0.3745,-0.133
0.135,-0.0955,-0.0515,0.044,0.0735,-0.07,-0.0035,-0.371,-0.345,-0.3805,-0.3665,-0.3805,-0.1425
0.136,-0.103,-0.053,0.05,0.078,-0.0765,-0.001,-0.3805,-0.337,-0.375,-0.364,-0.377,-0.124
0.137,-0.1065,-0.0615,0.045,0.084,-0.076,-0.008,-0.38,-0.3375,-0.3765,-0.365,-0.3715,-0.119
0.138,-0.103,-0.0585,0.044,0.0805,-0.0735,-0.007,-0.3805,-0.3395,-0.378,-0.3665,-0.3865,-0.142
0.139,-0.1025,-0.05,0.0525,0.076,-0.0775,0.0015,-0.3745,-0.333,-0.3715,-0.3585,-0.382,-0.1255
0.14,-0.0985,-0.047,0.052,0.0725,-0.0755,0.003,-0.3715,-0.334,-0.367,-0.3555,-0.3715,-0.1175
0.141,-0.0985,-0.046,0.0525,0.072,-0.075,0.0035,-0.369,-0.3305,-0.3615,-0.351,-0.3725,-0.12
0.142,-0.097,-0.05,0.0465,0.073,-0.0715,-0.0015,-0.3715,-0.3335,-0.3645,-0.351,-0.375,-0.1235
0.143,-0.097,-0.053,0.0445,0.0745,-0.071,-0.004,-0.374,-0.334,-0.366,-0.353,-0.378,-0.131
0.144,-0.105,-0.0625,0.0425,0.0835,-0.0735,-0.01,-0.377,-0.3335,-0.365,-0.3515,-0.3765,-0.123
0.145,-0.1035,-0.06,0.0435,0.0815,-0.0735,-0.008,-0.374,-0.3305,-0.3605,-0.345,-0.367,-0.115
0.146,-0.102,-0.0605,0.042,0.081,-0.072,-0.009,-0.3695,-0.327,-0.3605,-0.342,-0.3655,-0.1135
0.147,-0.0975,-0.075,0.0225,0.0855,-0.06,-0.026,-0.3695,-0.327,-0.36,-0.3425,-0.3685,-0.1165
0.148,-0.1,-0.0725,0.0275,0.086,-0.0635,-0.0225,-0.3745,-0.3335,-0.3625,-0.346,-0.3675,-0.115
0.149,-0.1095,-0.054,0.056,0.0815,-0.083,0.0015,-0.389,-0.35,-0.3775,-0.3565,-0.3685,-0.1175
0.15,-0.1075,-0.046,0.0615,0.0765,-0.0845,0.008,-0.393,-0.351,-0.377,-0.3575,-0.3745,-0.124
0.151,-0.103,-0.048,0.0555,0.075,-0.079,0.004,-0.3855,-0.3405,-0.3695,-0.35,-0.375,-0.1225
0.152,-0.103,-0.045,0.0585,0.0735,-0.0805,0.007,-0.384,-0.3445,-0.375,-0.3545,-0.3745,-0.12
0.153,-0.0985,-0.0355,0.0625,0.067,-0.0805,0.0135,-0.3845,-0.347,-0.3765,-0.3565,-0.371,-0.117
0.154,-0.0915,-0.0245,0.067,0.058,-0.0795,0.0215,-0.3795,-0.3395,-0.371,-0.3515,-0.371,-0.1215
0.155,-0.0885,-0.0215,0.067,0.055,-0.078,0.023,-0.374,-0.338,-0.37,-0.3515,-0.379,-0.1255
0.156,-0.0905,-0.0255,0.065,0.058,-0.0775,0.02,-0.374,-0.3375,-0.368,-0.3505,-0.3645,-0.1165
0.157,-0.099,-0.0275,0.0715,0.063,-0.0855,0.022,-0.373,-0.3375,-0.3675,-0.349,-0.3605,-0.117
0.158,-0.1055,-0.037,0.0685,0.071,-0.087,0.016,-0.3875,-0.3465,-0.376,-0.3545,-0.3695,-0.121
0.159,-0.1035,-0.0495,0.0545,0.0765,-0.079,0.0025,-0.3965,-0.3505,-0.3765,-0.3555,-0.368,-0.121
0.16,-0.0965,-0.0415,0.055,0.0685,-0.0755,0.007,-0.371,-0.336,-0.3635,-0.3425,-0.3615,-0.1145
0.161,-0.0965,-0.034,0.062,0.065,-0.079,0.0145,-0.3705,-0.339,-0.368,-0.3445,-0.3515,-0.1075
0.162,-0.0995,-0.0305,0.069,0.0645,-0.084,0.0195,-0.381,-0.3475,-0.3755,-0.35,-0.3545,-0.1105
0.163,-0.097,-0.032,0.0645,0.0645,-0.0805,0.0165,-0.3755,-0.3385,-0.3635,-0.339,-0.3575,-0.113
0.164,-0.094,-0.041,0.053,0.067,-0.0735,0.0065,-0.378,-0.3365,-0.3615,-0.3345,-0.352,-0.107
0.165,-0.0875,-0.04,0.0475,0.0635,-0.0675,0.004,-0.382,-0.3415,-0.3705,-0.3395,-0.347,-0.105
0.166,-0.085,-0.033,0.052,0.059,-0.0685,0.0095,-0.3855,-0.3465,-0.374,-0.345,-0.351,-0.1105
0.167,-0.0915,-0.0375,0.054,0.064,-0.0725,0.0085,-0.3885,-0.347,-0.3745,-0.346,-0.35,-0.112
0.168,-0.1025,-0.0455,0.057,0.0735,-0.0795,0.006,-0.388,-0.3475,-0.378,-0.3465,-0.3555,-0.1205
0.169,-0.108,-0.0375,0.0705,0.0725,-0.0895,0.017,-0.3905,-0.3485,-0.3755,-0.3455,-0.357,-0.121
0.17,-0.105,-0.0405,0.0645,0.0725,-0.085,0.012,-0.3875,-0.343,-0.371,-0.343,-0.35,-0.1125
0.171,-0.104,-0.043,0.061,0.073,-0.0825,0.0095,-0.3805,-0.341,-0.3725,-0.343,-0.3465,-0.1135
0.172,-0.1045,-0.027,0.0775,0.0655,-0.091,0.0255,-0.381,-0.3425,-0.374,-0.3435,-0.349,-0.1155
0.173,-0.1095,-0.0195,0.0905,0.0645,-0.1,0.036,-0.385,-0.349,-0.378,-0.347,-0.357,-0.122
0.174,-0.1115,-0.02,0.0915,0.0655,-0.1015,0.0355,-0.3865,-0.3525,-0.38,-0.3485,-0.3505,-0.121
0.175,-0.103,-0.0245,0.079,0.0635,-0.091,0.0275,-0.3835,-0.3455,-0.374,-0.342,-0.3445,-0.1135
0.176,-0.1005,-0.0345,0.066,0.067,-0.0835,0.016,-0.378,-0.3405,-0.368,-0.3365,-0.336,-0.1025
0.177,-0.097,-0.026,0.071,0.0615,-0.084,0.0225,-0.379,-0.3415,-0.367,-0.3375,-0.3375,-0.1035
0.178,-0.0985,-0.0175,0.0805,0.0575,-0.0895,0.032,-0.381,-0.3435,-0.3685,-0.342,-0.3435,-0.106
0.179,-0.097,-0.0285,0.068,0.0625,-0.0825,0.02,-0.3785,-0.343,-0.3715,-0.342,-0.34,-0.1035
0.18,-0.0965,-0.032,0.064,0.064,-0.08,0.0165,-0.377,-0.341,-0.37,-0.3385,-0.3375,-0.1005
0.181,-0.0995,-0.032,0.067,0.0655,-0.083,0.018,-0.3785,-0.3435,-0.3695,-0.3365,-0.335,-0.0915
0.182,-0.0935,-0.026,0.068,0.0595,-0.081,0.0215,-0.384,-0.3455,-0.3695,-0.336,-0.34,-0.094
0.183,-0.095,-0.02,0.0745,0.057,-0.0845,0.0275,-0.3855,-0.347,-0.368,-0.3375,-0.3325,-0.093
0.184,-0.093,-0.022,0.071,0.0575,-0.082,0.025,-0.384,-0.347,-0.3675,-0.3345,-0.3245,-0.086
0.185,-0.0975,-0.0305,0.067,0.0635,-0.0825,0.0185,-0.3845,-0.3505,-0.3685,-0.3335,-0.325,-0.0875
0.186,-0.0995,-0.037,0.0625,0.068,-0.0805,0.013,-0.3855,-0.352,-0.371,-0.3355,-0.3275,-0.0945
0.187,-0.091,-0.034,0.0565,0.0625,-0.0735,0.0115,-0.388,-0.352,-0.374,-0.3365,-0.331,-0.0965
0.188,-0.0955,-0.0435,0.052,0.069,-0.0735,0.0045,-0.3885,-0.353,-0.3755,-0.3385,-0.3275,-0.094
0.189,-0.0945,-0.0415,0.053,0.0675,-0.0735,0.006,-0.3905,-0.3545,-0.3745,-0.338,-0.3265,-0.0955
0.19,-0.092,-0.029,0.063,0.0605,-0.0775,0.0175,-0.3935,-0.3585,-0.3775,-0.3405,-0.3285,-0.099
0.191,-0.1005,-0.027,0.0735,0.0635,-0.087,0.0235,-0.3935,-0.3635,-0.382,-0.345,-0.328,-0.0985
0.192,-0.097,-0.0245,0.0725,0.06,-0.085,0.0245,-0.396,-0.3705,-0.387,-0.349,-0.3295,-0.099
0.193,-0.092,-0.017,0.075,0.054,-0.0835,0.0295,-0.3965,-0.3605,-0.379,-0.344,-0.33,-0.101
0.194,-0.0985,-0.009,0.09,0.0535,-0.0945,0.0405,-0.3985,-0.3615,-0.3795,-0.343,-0.327,-0.096
0.195,-0.1035,-0.012,0.0915,0.0575,-0.098,0.04,-0.4025,-0.3725,-0.39,-0.3495,-0.332,-0.098
0.196,-0.103,-0.015,0.088,0.0585,-0.0955,0.037,-0.4065,-0.3675,-0.385,-0.345,-0.334,-0.1025
0.197,-0.104,-0.019,0.0855,0.061,-0.095,0.0335,-0.4155,-0.373,-0.39,-0.3485,-0.339,-0.1005
0.198,-0.1025,-0.021,0.0815,0.062,-0.092,0.0305,-0.4145,-0.378,-0.3955,-0.353,-0.3375,-0.096
0.199,-0.0975,-0.022,0.075,0.0595,-0.086,0.0265,-0.404,-0.369,-0.3885,-0.3445,-0.329,-0.0985
0.2,-0.0965,-0.027,0.069,0.0615,-0.083,0.0215,-0.401,-0.3665,-0.3865,-0.345,-0.3305,-0.1005
0.201,-0.097,-0.0205,0.076,0.0585,-0.0865,0.028,-0.402,-0.3695,-0.3905,-0.3485,-0.3315,-0.0965
0.202,-0.1,-0.0175,0.083,0.058,-0.0915,0.033,-0.4015,-0.369,-0.3895,-0.3485,-0.334,-0.098
0.203,-0.1035,-0.0275,0.076,0.065,-0.09,0.0245,-0.399,-0.367,-0.389,-0.349,-0.3305,-0.0925
0.204,-0.1015,-0.0265,0.075,0.064,-0.0885,0.0245,-0.39,-0.364,-0.3875,-0.346,-0.3255,-0.089
0.205,-0.0985,-0.013,0.086,0.0555,-0.0925,0.0365,-0.395,-0.3635,-0.3855,-0.345,-0.327,-0.092
0.206,-0.1035,-0.0125,0.091,0.058,-0.0975,0.0395,-0.3995,-0.365,-0.386,-0.344,-0.324,-0.0855
0.207,-0.1115,-0.022,0.09,0.0665,-0.1005,0.0345,-0.3905,-0.3615,-0.3815,-0.34,-0.3195,-0.0795
0.208,-0.106,-0.0225,0.0835,0.064,-0.0945,0.0305,-0.3915,-0.362,-0.384,-0.343,-0.323,-0.083
0.209,-0.0985,-0.0215,0.077,0.0595,-0.0875,0.028,-0.394,-0.365,-0.3865,-0.347,-0.325,-0.0855
0.21,-0.105,-0.028,0.0775,0.0665,-0.0915,0.025,-0.392,-0.364,-0.385,-0.3465,-0.3255,-0.0845
0.211,-0.1,-0.0305,0.0695,0.065,-0.0845,0.02,-0.3925,-0.3645,-0.3865,-0.348,-0.323,-0.083
0.212,-0.1,-0.0275,0.0725,0.0635,-0.086,0.023,-0.3925,-0.3665,-0.3905,-0.352,-0.3265,-0.0855
0.213,-0.1025,-0.009,0.0935,0.0555,-0.098,0.0425,-0.3945,-0.3705,-0.3945,-0.356,-0.332,-0.094
0.214,-0.0995,0.012,0.111,0.0435,-0.1055,0.0615,-0.399,-0.377,-0.3965,-0.3615,-0.337,-0.099
0.215,-0.11,0.0015,0.1115,0.054,-0.1105,0.0565,-0.399,-0.379,-0.3995,-0.3635,-0.3405,-0.104
0.216,-0.0995,-0.0035,0.096,0.0515,-0.098,0.0465,-0.401,-0.3755,-0.398,-0.362,-0.3395,-0.1045
0.217,-0.0895,-0.009,0.0805,0.049,-0.085,0.036,-0.4045,-0.3765,-0.398,-0.365,-0.348,-0.096
0.218,-0.095,-0.0165,0.0785,0.055,-0.0865,0.0315,-0.4,-0.3745,-0.395,-0.359,-0.331,-0.0945
0.219,-0.1005,-0.0285,0.072,0.0645,-0.0865,0.022,-0.391,-0.367,-0.387,-0.3515,-0.3195,-0.0925
0.22,-0.1015,-0.0525,0.049,0.0765,-0.075,-0.0015,-0.386,-0.363,-0.3825,-0.348,-0.3225,-0.084
0.221,-0.096,-0.0425,0.053,0.069,-0.0745,0.0055,-0.3875,-0.3635,-0.385,-0.349,-0.323,-0.0885
0.222,-0.0925,-0.028,0.064,0.06,-0.078,0.018,-0.39,-0.3685,-0.3915,-0.355,-0.327,-0.091
0.223,-0.0925,-0.0245,0.068,0.058,-0.08,0.022,-0.391,-0.368,-0.391,-0.3545,-0.327,-0.092
0.224,-0.0895,-0.0275,0.062,0.0585,-0.076,0.0175,-0.3965,-0.3695,-0.392,-0.3585,-0.332,-0.0945
0.225,-0.0855,-0.026,0.06,0.0555,-0.0725,0.017,-0.403,-0.377,-0.4015,-0.3645,-0.3345,-0.0945
0.226,-0.084,-0.019,0.065,0.051,-0.0745,0.0235,-0.401,-0.3745,-0.4005,-0.363,-0.3335,-0.0925
0.227,-0.083,-0.0245,0.0585,0.0535,-0.0705,0.0175,-0.3935,-0.3665,-0.392,-0.356,-0.3295,-0.0915
0.228,-0.0925,-0.03,0.0625,0.061,-0.0775,0.0165,-0.3905,-0.3685,-0.394,-0.357,-0.337,-0.103
0.229,-0.093,-0.031,0.0615,0.0615,-0.0775,0.0155,-0.391,-0.3705,-0.397,-0.363,-0.337,-0.108
0.23,-0.09,-0.0255,0.0645,0.0575,-0.077,0.0195,-0.3925,-0.3685,-0.394,-0.3605,-0.3295,-0.101
0.231,-0.0995,-0.031,0.0685,0.065,-0.084,0.019,-0.3955,-0.37,-0.3975,-0.366,-0.3435,-0.1005
0.232,-0.1025,-0.034,0.0685,0.068,-0.086,0.0175,-0.3905,-0.3685,-0.3985,-0.3655,-0.342,-0.0965
0.233,-0.0985,-0.0305,0.068,0.064,-0.083,0.019,-0.3855,-0.3645,-0.394,-0.357,-0.334,-0.094
0.234,-0.0965,-0.0325,0.064,0.064,-0.08,0.016,-0.391,-0.37,-0.398,-0.3695,-0.342,-0.1005
0.235,-0.1,-0.034,0.066,0.067,-0.083,0.016,-0.3905,-0.37,-0.3975,-0.3715,-0.344,-0.1065
0.236,-0.101,-0.029,0.072,0.065,-0.0865,0.022,-0.389,-0.3665,-0.394,-0.3665,-0.343,-0.105
0.237,-0.1005,-0.0235,0.0765,0.0615,-0.0885,0.027,-0.3885,-0.367,-0.3955,-0.368,-0.343,-0.1015
0.238,-0.0995,-0.0305,0.069,0.065,-0.0845,0.0195,-0.3875,-0.3665,-0.396,-0.3675,-0.3425,-0.1025
0.239,-0.097,-0.036,0.061,0.0665,-0.079,0.0125,-0.3915,-0.3705,-0.4,-0.3685,-0.3425,-0.101
0.24,-0.104,-0.0185,0.0855,0.061,-0.095,0.034,-0.3945,-0.3745,-0.403,-0.372,-0.3495,-0.111
0.241,-0.1045,0.005,0.1095,0.0495,-0.1075,0.0575,-0.3995,-0.3825,-0.4115,-0.38,-0.3565,-0.11
0.242,-0.0965,-0.0035,0.093,0.05,-0.0945,0.045,-0.401,-0.3835,-0.4135,-0.379,-0.346,-0.1025
0.243,-0.1035,-0.0215,0.0825,0.062,-0.093,0.031,-0.3995,-0.3805,-0.4075,-0.374,-0.339,-0.1085
0.244,-0.101,-0.0325,0.0685,0.0665,-0.0845,0.018,-0.403,-0.384,-0.41,-0.375,-0.341,-0.1055
0.245,-0.093,-0.041,0.052,0.067,-0.0725,0.0055,-0.4035,-0.3825,-0.41,-0.3755,-0.34,-0.1035
0.246,-0.1075,-0.0415,0.066,0.0745,-0.087,0.0125,-0.3985,-0.3825,-0.4075,-0.3745,-0.34,-0.1045
0.247,-0.1045,-0.0345,0.07,0.0695,-0.0875,0.018,-0.399,-0.383,-0.407,-0.377,-0.3425,-0.1075
0.248,-0.096,-0.0325,0.063,0.064,-0.0795,0.0155,-0.401,-0.3825,-0.407,-0.378,-0.3445,-0.111
0.249,-0.0995,-0.037,0.0625,0.068,-0.081,0.013,-0.4015,-0.385,-0.41,-0.3785,-0.3455,-0.1115
0.25,-0.096,-0.0295,0.0665,0.0625,-0.081,0.0185,-0.4045,-0.3865,-0.4115,-0.379,-0.344,-0.1105
0.251,-0.107,-0.0315,0.0755,0.069,-0.091,0.0225,-0.4065,-0.389,-0.4145,-0.3825,-0.346,-0.113
0.252,-0.111,-0.042,0.069,0.0765,-0.09,0.014,-0.404,-0.3885,-0.413,-0.382,-0.346,-0.1125
0.253,-0.1065,-0.0425,0.0645,0.074,-0.0855,0.0115,-0.4,-0.383,-0.4095,-0.3775,-0.342,-0.1065
0.254,-0.11,-0.04,0.07,0.075,-0.0905,0.015,-0.4015,-0.384,-0.413,-0.3805,-0.345,-0.109
0.255,-0.1155,-0.0415,0.0745,0.078,-0.095,0.0165,-0.4005,-0.3855,-0.414,-0.382,-0.3425,-0.108
0.256,-0.1135,-0.037,0.0765,0.075,-0.095,0.02,-0.399,-0.387,-0.417,-0.385,-0.3395,-0.1115
0.257,-0.116,-0.04,0.076,0.078,-0.096,0.018,-0.3975,-0.387,-0.416,-0.382,-0.35,-0.1165
0.258,-0.1215,-0.0445,0.077,0.083,-0.0995,0.0165,-0.393,-0.383,-0.4105,-0.378,-0.352,-0.1215
0.259,-0.115,-0.0525,0.063,0.0835,-0.089,0.0055,-0.3935,-0.3845,-0.412,-0.379,-0.3485,-0.1255
0.26,-0.1155,-0.067,0.048,0.091,-0.0815,-0.0095,-0.3925,-0.384,-0.413,-0.3795,-0.343,-0.102
0.261,-0.117,-0.0705,0.0465,0.0935,-0.0815,-0.012,-0.389,-0.3785,-0.408,-0.377,-0.3385,-0.096
0.262,-0.1265,-0.0625,0.064,0.0945,-0.0955,0.001,-0.3885,-0.3795,-0.41,-0.378,-0.3435,-0.1065
0.263,-0.125,-0.052,0.073,0.0885,-0.099,0.0105,-0.3955,-0.386,-0.417,-0.385,-0.348,-0.113
0.264,-0.1175,-0.0565,0.061,0.0865,-0.089,0.0025,-0.401,-0.3905,-0.42,-0.388,-0.3505,-0.1225
0.265,-0.1155,-0.06,0.055,0.0875,-0.085,-0.0025,-0.399,-0.3895,-0.417,-0.386,-0.3505,-0.1205
0.266,-0.1135,-0.059,0.0545,0.086,-0.084,-0.002,-0.393,-0.386,-0.4125,-0.3815,-0.348,-0.117
0.267,-0.1125,-0.0585,0.0545,0.085,-0.0835,-0.0015,-0.3895,-0.381,-0.4085,-0.3785,-0.345,-0.114
0.268,-0.106,-0.063,0.043,0.0845,-0.0745,-0.01,-0.392,-0.383,-0.411,-0.381,-0.3485,-0.117
0.269,-0.104,-0.0605,0.0435,0.082,-0.0735,-0.0085,-0.3935,-0.3875,-0.4145,-0.3845,-0.35,-0.1185
0.27,-0.1035,-0.06,0.044,0.0815,-0.0735,-0.008,-0.391,-0.3835,-0.4135,-0.385,-0.35,-0.118
0.271,-0.1085,-0.069,0.039,0.0885,-0.0735,-0.015,-0.393,-0.3835,-0.415,-0.385,-0.3525,-0.1185
0.272,-0.1145,-0.06,0.0545,0.087,-0.0845,-0.0025,-0.4025,-0.3905,-0.4215,-0.391,-0.362,-0.13
0.273,-0.1135,-0.05,0.0635,0.0815,-0.0885,0.007,-0.4045,-0.393,-0.4225,-0.3945,-0.37,-0.134
0.274,-0.1105,-0.052,0.0585,0.081,-0.0845,0.0035,-0.394,-0.3855,-0.4155,-0.3915,-0.361,-0.123
0.275,-0.114,-0.054,0.0595,0.0835,-0.087,0.003,-0.3915,-0.383,-0.4155,-0.39,-0.356,-0.1265
0.276,-0.1135,-0.0575,0.056,0.085,-0.085,-0.0005,-0.392,-0.383,-0.415,-0.388,-0.356,-0.1255
0.277,-0.113,-0.064,0.0485,0.0885,-0.0805,-0.0075,-0.4045,-0.3915,-0.424,-0.3965,-0.362,-0.129
0.278,-0.1105,-0.0555,0.055,0.0825,-0.0825,0.0,-0.4115,-0.3965,-0.427,-0.3995,-0.368,-0.139
0.279,-0.102,-0.0345,0.0675,0.068,-0.085,0.017,-0.394,-0.3875,-0.418,-0.3935,-0.3695,-0.1445
0.28,-0.104,-0.0285,0.075,0.066,-0.0895,0.0235,-0.3945,-0.386,-0.4165,-0.391,-0.3685,-0.138
0.281,-0.105,-0.0255,0.08,0.0655,-0.0925,0.0275,-0.3995,-0.3915,-0.422,-0.396,-0.3685,-0.1335
0.282,-0.1095,-0.0235,0.086,0.066,-0.098,0.0315,-0.401,-0.399,-0.4315,-0.406,-0.379,-0.1395
0.283,-0.1165,-0.0345,0.0815,0.075,-0.099,0.0235,-0.401,-0.3975,-0.4295,-0.4025,-0.381,-0.138
0.284,-0.1125,-0.04,0.072,0.076,-0.092,0.016,-0.3995,-0.3965,-0.4285,-0.3995,-0.369,-0.135
0.285,-0.1195,-0.041,0.0785,0.08,-0.099,0.019,-0.4015,-0.4005,-0.4335,-0.4025,-0.3675,-0.129
0.286,-0.1135,-0.0425,0.071,0.0775,-0.092,0.0145,-0.3975,-0.394,-0.4275,-0.3975,-0.365,-0.1225
0.287,-0.1105,-0.044,0.067,0.077,-0.089,0.012,-0.395,-0.391,-0.424,-0.3925,-0.3595,-0.116
0.288,-0.1245,-0.0575,0.067,0.091,-0.096,0.005,-0.3955,-0.3965,-0.43,-0.3975,-0.3615,-0.117
0.289,-0.1135,-0.0595,0.054,0.086,-0.084,-0.0025,-0.3985,-0.397,-0.429,-0.398,-0.3575,-0.1145
0.29,-0.109,-0.052,0.0575,0.0805,-0.0835,0.003,-0.3965,-0.3985,-0.431,-0.399,-0.363,-0.1135
0.291,-0.114,-0.05,0.064,0.0815,-0.089,0.0075,-0.398,-0.396,-0.432,-0.398,-0.357,-0.117
0.292,-0.1175,-0.056,0.061,0.0865,-0.0895,0.003,-0.398,-0.3965,-0.4325,-0.398,-0.349,-0.1125
0.293,-0.114,-0.0575,0.0565,0.0855,-0.0855,0.0,-0.3925,-0.3855,-0.4195,-0.3915,-0.3555,-0.113
0.294,-0.1155,-0.0545,0.0605,0.0845,-0.088,0.003,-0.397,-0.3855,-0.42,-0.393,-0.3575,-0.1135
0.295,-0.114,-0.055,0.059,0.084,-0.0865,0.002,-0.3955,-0.3905,-0.4265,-0.3985,-0.3525,-0.1105
0.296,-0.1085,-0.0565,0.0515,0.0825,-0.08,-0.0025,-0.3925,-0.383,-0.4185,-0.394,-0.3485,-0.1105
0.297,-0.1095,-0.059,0.0505,0.084,-0.08,-0.004,-0.402,-0.3935,-0.4285,-0.4045,-0.3585,-0.118
0.298,-0.1065,-0.0495,0.0575,0.078,-0.082,0.0045,-0.4025,-0.3965,-0.432,-0.4085,-0.3675,-0.124
0.299,-0.109,-0.0505,0.0585,0.0795,-0.084,0.0045,-0.3995,-0.3955,-0.431,-0.407,-0.367,-0.1245
0.3,-0.1095,-0.056,0.0535,0.0825,-0.0815,-0.001,-0.4,-0.397,-0.4335,-0.4075,-0.369,-0.121
0.301,-0.1105,-0.053,0.0575,0.0815,-0.084,0.0025,-0.393,-0.392,-0.4295,-0.4035,-0.366,-0.1205
0.302,-0.117,-0.0445,0.0725,0.0805,-0.0945,0.0145,-0.393,-0.3905,-0.426,-0.4015,-0.3725,-0.1185
0.303,-0.1215,-0.0345,0.0865,0.0775,-0.104,0.0265,-0.399,-0.3945,-0.428,-0.4035,-0.376,-0.1125
0.304,-0.1165,-0.0175,0.099,0.0665,-0.108,0.041,-0.3925,-0.392,-0.424,-0.3955,-0.354,-0.1155
0.305,-0.117,-0.0075,0.1095,0.062,-0.113,0.051,-0.39,-0.3865,-0.4175,-0.387,-0.355,-0.1155
0.306,-0.118,-0.019,0.099,0.0685,-0.1085,0.04,-0.3915,-0.393,-0.4245,-0.3975,-0.3605,-0.114
0.307,-0.1175,-0.021,0.0965,0.069,-0.107,0.038,-0.3885,-0.397,-0.429,-0.402,-0.3615,-0.115
0.308,-0.112,-0.0145,0.0975,0.063,-0.105,0.0415,-0.3895,-0.3865,-0.416,-0.39,-0.358,-0.107
0.309,-0.1015,-0.0035,0.0975,0.0525,-0.0995,0.0475,-0.391,-0.383,-0.41,-0.3845,-0.351,-0.1035
0.31,-0.1105,-0.01,0.1,0.06,-0.105,0.0455,-0.3875,-0.3825,-0.411,-0.384,-0.347,-0.104
0.311,-0.112,-0.015,0.097,0.063,-0.1045,0.0415,-0.3835,-0.3795,-0.408,-0.381,-0.347,-0.1065
0.312,-0.112,-0.0215,0.0905,0.0665,-0.1015,0.0345,-0.379,-0.3735,-0.4015,-0.3765,-0.347,-0.1005
0.313,-0.1065,-0.037,0.0695,0.0715,-0.088,0.0165,-0.378,-0.371,-0.399,-0.37,-0.3375,-0.093
0.314,-0.097,-0.0215,0.0755,0.059,-0.0865,0.0275,-0.388,-0.378,-0.404,-0.374,-0.3415,-0.098
0.315,-0.1,-0.0145,0.0855,0.057,-0.0925,0.036,-0.3905,-0.377,-0.405,-0.38,-0.343,-0.1005
0.316,-0.095,-0.0175,0.0775,0.056,-0.086,0.0305,-0.3925,-0.379,-0.4065,-0.38,-0.345,-0.1035
0.317,-0.0835,-0.002,0.082,0.0425,-0.083,0.04,-0.3945,-0.3775,-0.404,-0.376,-0.3445,-0.0965
0.318,-0.0795,0.0115,0.091,0.034,-0.0855,0.0515,-0.396,-0.3765,-0.406,-0.374,-0.335,-0.0895
0.319,-0.0935,0.0055,0.099,0.044,-0.0965,0.0525,-0.398,-0.3755,-0.4055,-0.3715,-0.33,-0.09
0.32,-0.0995,-0.001,0.0985,0.05,-0.099,0.049,-0.394,-0.3725,-0.402,-0.3685,-0.332,-0.097
0.321,-0.101,-0.002,0.099,0.0515,-0.1,0.0485,-0.3905,-0.368,-0.3965,-0.3615,-0.333,-0.0925
0.322,-0.1035,0.005,0.1085,0.049,-0.106,0.0565,-0.3865,-0.3615,-0.3865,-0.354,-0.324,-0.08
0.323,-0.1025,0.008,0.111,0.047,-0.107,0.0595,-0.3865,-0.3645,-0.387,-0.3545,-0.322,-0.085
0.324,-0.099,0.0065,0.1055,0.046,-0.1025,0.0565,-0.3855,-0.3625,-0.3865,-0.3525,-0.3255,-0.083
0.325,-0.096,0.012,0.108,0.042,-0.102,0.06,-0.3815,-0.354,-0.3775,-0.3465,-0.326,-0.0815
0.326,-0.109,0.0045,0.114,0.052,-0.111,0.0595,-0.3805,-0.353,-0.377,-0.346,-0.3295,-0.0885
0.327,-0.1045,0.005,0.1095,0.0495,-0.107,0.0575,-0.384,-0.3565,-0.3855,-0.352,-0.333,-0.0895
0.328,-0.097,0.0,0.0965,0.0485,-0.097,0.0485,-0.385,-0.358,-0.3885,-0.354,-0.3335,-0.091
0.329,-0.1025,-0.014,0.089,0.058,-0.0955,0.0375,-0.3795,-0.358,-0.389,-0.356,-0.337,-0.096
0.33,-0.099,-0.01,0.089,0.054,-0.094,0.04,-0.3795,-0.3505,-0.382,-0.3505,-0.3335,-0.093
0.331,-0.098,0.0045,0.1025,0.0465,-0.1,0.0535,-0.383,-0.3505,-0.379,-0.349,-0.327,-0.09
0.332,-0.0925,0.019,0.1115,0.0365,-0.102,0.0655,-0.3885,-0.3555,-0.3805,-0.3535,-0.3305,-0.094
0.333,-0.0925,0.0115,0.1045,0.04,-0.0985,0.0585,-0.3915,-0.357,-0.3795,-0.353,-0.333,-0.0935
0.334,-0.1,0.0095,0.109,0.045,-0.1045,0.0595,-0.3925,-0.3585,-0.383,-0.3555,-0.3325,-0.0945
0.335,-0.1005,0.0215,0.1225,0.039,-0.1115,0.0725,-0.3925,-0.355,-0.3795,-0.351,-0.334,-0.093
0.336,-0.103,0.033,0.136,0.035,-0.1195,0.0845,-0.3935,-0.358,-0.3805,-0.3515,-0.335,-0.0965
0.337,-0.0975,0.0375,0.135,0.03,-0.116,0.0865,-0.396,-0.358,-0.382,-0.353,-0.3415,-0.1035
0.338,-0.099,0.035,0.1335,0.032,-0.116,0.084,-0.3945,-0.3545,-0.377,-0.3475,-0.341,-0.095
0.339,-0.0965,0.0375,0.1335,0.0295,-0.115,0.0855,-0.3965,-0.3545,-0.3735,-0.343,-0.3225,-0.088
0.34,-0.0855,0.0385,0.124,0.0235,-0.1045,0.0815,-0.3985,-0.353,-0.3705,-0.3385,-0.3185,-0.089
0.341,-0.091,0.0365,0.1275,0.027,-0.109,0.082,-0.397,-0.351,-0.3675,-0.3365,-0.3195,-0.083
0.342,-0.0925,0.0435,0.136,0.024,-0.114,0.09,-0.4015,-0.354,-0.3675,-0.337,-0.3165,-0.082
0.343,-0.096,0.0505,0.147,0.0225,-0.1215,0.099,-0.4015,-0.354,-0.3665,-0.333,-0.314,-0.0775
0.344,-0.0865,0.0465,0.133,0.0195,-0.11,0.09,-0.399,-0.348,-0.3585,-0.3265,-0.302,-0.065
0.345,-0.076,0.0405,0.1165,0.0175,-0.096,0.079,-0.403,-0.3525,-0.36,-0.3265,-0.305,-0.0675
0.346,-0.0815,0.0435,0.125,0.0185,-0.103,0.0845,-0.4055,-0.357,-0.3645,-0.328,-0.303,-0.0655
0.347,-0.076,0.0435,0.1195,0.016,-0.098,0.0815,-0.4035,-0.355,-0.3615,-0.327,-0.2945,-0.0585
0.348,-0.075,0.0415,0.1165,0.0165,-0.0955,0.079,-0.4035,-0.3555,-0.3615,-0.3255,-0.3005,-0.0625
0.349,-0.077,0.04,0.117,0.0185,-0.097,0.0785,-0.409,-0.3625,-0.3675,-0.3305,-0.305,-0.064
0.35,-0.0685,0.031,0.0995,0.0185,-0.084,0.0655,-0.4135,-0.3685,-0.374,-0.3375,-0.3065,-0.0635
0.351,-0.069,0.0335,0.1025,0.0175,-0.086,0.0685,-0.413,-0.3705,-0.3755,-0.3375,-0.304,-0.0625
0.352,-0.0685,0.0335,0.102,0.0175,-0.085,0.068,-0.417,-0.377,-0.3835,-0.344,-0.3115,-0.0685
0.353,-0.0605,0.0325,0.093,0.0135,-0.077,0.063,-0.422,-0.387,-0.3945,-0.354,-0.315,-0.071
0.354,-0.081,0.02,0.101,0.0305,-0.091,0.061,-0.4235,-0.397,-0.3995,-0.3565,-0.3135,-0.0685
0.355,-0.0865,0.006,0.092,0.04,-0.0895,0.0495,-0.421,-0.3975,-0.4025,-0.36,-0.3195,-0.0735
0.356,-0.078,0.007,0.085,0.0355,-0.082,0.0465,-0.422,-0.394,-0.402,-0.3605,-0.3165,-0.071
0.357,-0.0815,0.0145,0.096,0.0335,-0.089,0.0555,-0.424,-0.389,-0.395,-0.3545,-0.3105,-0.068
0.358,-0.078,0.0275,0.1055,0.025,-0.092,0.067,-0.4145,-0.3805,-0.3855,-0.3425,-0.303,-0.061
0.359,-0.0785,0.0245,0.103,0.0265,-0.091,0.064,-0.4105,-0.376,-0.382,-0.3365,-0.3015,-0.058
0.36,-0.0765,0.0295,0.1055,0.0235,-0.091,0.0675,-0.417,-0.3735,-0.38,-0.336,-0.304,-0.0585
0.361,-0.0755,0.023,0.0985,0.026,-0.087,0.061,-0.426,-0.375,-0.379,-0.3355,-0.298,-0.0575
0.362,-0.0795,0.0095,0.089,0.0345,-0.084,0.0495,-0.4195,-0.371,-0.3785,-0.333,-0.2925,-0.058
0.363,-0.079,0.003,0.082,0.0375,-0.0805,0.0425,-0.4175,-0.376,-0.3855,-0.339,-0.294,-0.058
0.364,-0.072,-0.003,0.0685,0.0375,-0.07,0.033,-0.42,-0.382,-0.387,-0.3435,-0.296,-0.059
0.365,-0.0645,-0.003,0.0615,0.0335,-0.063,0.0295,-0.417,-0.378,-0.384,-0.3385,-0.294,-0.059
0.366,-0.061,0.0,0.061,0.0305,-0.061,0.0305,-0.4185,-0.3815,-0.389,-0.3405,-0.295,-0.0555
0.367,-0.0675,0.001,0.0685,0.033,-0.068,0.035,-0.422,-0.3885,-0.3935,-0.3475,-0.298,-0.0615
0.368,-0.0645,-0.002,0.0625,0.033,-0.0635,0.0305,-0.4285,-0.397,-0.4045,-0.359,-0.3065,-0.0735
0.369,-0.0625,-0.006,0.0565,0.034,-0.0595,0.0255,-0.4365,-0.405,-0.416,-0.3695,-0.3155,-0.08
0.37,-0.072,-0.0195,0.0525,0.0455,-0.0625,0.0165,-0.45,-0.412,-0.422,-0.3755,-0.3195,-0.0835
0.371,-0.065,-0.017,0.048,0.0405,-0.0565,0.016,-0.4395,-0.406,-0.419,-0.373,-0.316,-0.0815
0.372,-0.063,-0.017,0.0465,0.0395,-0.0545,0.015,-0.4285,-0.396,-0.4115,-0.367,-0.3125,-0.078
0.373,-0.06,-0.026,0.0335,0.0425,-0.0465,0.004,-0.4365,-0.4025,-0.417,-0.37,-0.315,-0.08
0.374,-0.058,-0.032,0.0255,0.0445,-0.042,-0.003,-0.439,-0.411,-0.4315,-0.3835,-0.3235,-0.0865
0.375,-0.069,-0.041,0.028,0.0545,-0.0485,-0.006,-0.445,-0.418,-0.439,-0.394,-0.3255,-0.0955
0.376,-0.0885,-0.045,0.0435,0.0665,-0.066,-0.0005,-0.4465,-0.428,-0.452,-0.406,-0.339,-0.111
0.377,-0.094,-0.0465,0.048,0.07,-0.071,0.001,-0.452,-0.441,-0.4685,-0.4245,-0.356,-0.099
0.378,-0.084,-0.049,0.035,0.066,-0.0595,-0.0065,-0.4565,-0.447,-0.4745,-0.426,-0.342,-0.0835
0.379,-0.088,-0.055,0.033,0.0715,-0.0605,-0.0105,-0.45,-0.4415,-0.47,-0.4215,-0.337,-0.093
0.38,-0.0895,-0.0575,0.0325,0.073,-0.061,-0.012,-0.447,-0.4425,-0.471,-0.4245,-0.343,-0.0935
0.381,-0.0955,-0.058,0.0375,0.0765,-0.0665,-0.01,-0.4425,-0.4395,-0.468,-0.418,-0.3415,-0.083
0.382,-0.1075,-0.0515,0.056,0.079,-0.0815,0.0025,-0.434,-0.4335,-0.4605,-0.413,-0.331,-0.076
0.383,-0.1115,-0.049,0.0625,0.08,-0.087,0.007,-0.436,-0.4325,-0.4595,-0.4085,-0.32,-0.081
0.384,-0.118,-0.0585,0.059,0.088,-0.0885,0.0005,-0.4365,-0.435,-0.4605,-0.4125,-0.33,-0.086
0.385,-0.1175,-0.061,0.0565,0.089,-0.087,-0.002,-0.4305,-0.436,-0.464,-0.4205,-0.3405,-0.095
0.386,-0.1165,-0.058,0.058,0.087,-0.0875,0.0,-0.437,-0.4325,-0.4635,-0.415,-0.344,-0.105
0.387,-0.1195,-0.0655,0.0535,0.0925,-0.0865,-0.006,-0.4365,-0.4365,-0.47,-0.425,-0.3495,-0.104
0.388,-0.1145,-0.0715,0.043,0.093,-0.0785,-0.014,-0.428,-0.439,-0.4735,-0.435,-0.3555,-0.1025
0.389,-0.1205,-0.0795,0.041,0.0995,-0.081,-0.019,-0.425,-0.4375,-0.4745,-0.437,-0.357,-0.112
0.39,-0.1255,-0.087,0.0385,0.106,-0.082,-0.024,-0.424,-0.4375,-0.4775,-0.441,-0.366,-0.1255
0.391,-0.127,-0.0805,0.047,0.1035,-0.087,-0.0165,-0.423,-0.4385,-0.478,-0.4435,-0.3755,-0.127
0.392,-0.13,-0.088,0.0425,0.1085,-0.0865,-0.0225,-0.422,-0.4405,-0.478,-0.4455,-0.3755,-0.1235
0.393,-0.1335,-0.0975,0.036,0.115,-0.085,-0.0305,-0.4235,-0.439,-0.476,-0.4425,-0.3765,-0.1215
0.394,-0.139,-0.102,0.0365,0.12,-0.0875,-0.0325,-0.425,-0.4325,-0.47,-0.4385,-0.3755,-0.1195
0.395,-0.1345,-0.102,0.0325,0.1175,-0.0835,-0.0345,-0.426,-0.432,-0.4665,-0.4345,-0.3755,-0.121
0.396,-0.1365,-0.092,0.0445,0.1135,-0.0905,-0.0235,-0.4265,-0.4325,-0.4685,-0.4365,-0.3805,-0.126
0.397,-0.133,-0.093,0.04,0.112,-0.0865,-0.026,-0.42,-0.426,-0.464,-0.432,-0.3755,-0.123
0.398,-0.1365,-0.105,0.0315,0.12,-0.084,-0.037,-0.4135,-0.422,-0.4615,-0.429,-0.3745,-0.121
0.399,-0.1375,-0.1085,0.029,0.122,-0.0835,-0.0395,-0.415,-0.4225,-0.4645,-0.434,-0.3755,-0.121
0.4,-0.13,-0.105,0.0245,0.117,-0.0775,-0.04,-0.4175,-0.424,-0.466,-0.4365,-0.3755,-0.1225
0.401,-0.1355,-0.109,0.0265,0.1215,-0.081,-0.041,-0.421,-0.429,-0.4715,-0.4425,-0.384,-0.126
0.402,-0.139,-0.11,0.029,0.1235,-0.084,-0.0405,-0.4235,-0.4335,-0.4765,-0.4455,-0.382,-0.13
0.403,-0.1425,-0.113,0.029,0.127,-0.0855,-0.0415,-0.4235,-0.433,-0.478,-0.4465,-0.3805,-0.128
0.404,-0.1395,-0.114,0.026,0.126,-0.0825,-0.0435,-0.4225,-0.4365,-0.481,-0.451,-0.381,-0.124
0.405,-0.1385,-0.105,0.0335,0.121,-0.086,-0.036,-0.4245,-0.4405,-0.487,-0.457,-0.3845,-0.1295
0.406,-0.1385,-0.0915,0.047,0.114,-0.093,-0.022,-0.428,-0.443,-0.4925,-0.4625,-0.393,-0.137
0.407,-0.141,-0.0855,0.056,0.1125,-0.0985,-0.0145,-0.4275,-0.444,-0.495,-0.4655,-0.3945,-0.144
0.408,-0.144,-0.0845,0.0595,0.1135,-0.1015,-0.0125,-0.422,-0.443,-0.4965,-0.466,-0.3935,-0.1395
0.409,-0.143,-0.0835,0.0595,0.1125,-0.1015,-0.0115,-0.423,-0.443,-0.499,-0.469,-0.393,-0.142
0.41,-0.144,-0.082,0.062,0.112,-0.103,-0.0095,-0.4245,-0.4445,-0.501,-0.4725,-0.4015,-0.15
0.411,-0.1415,-0.091,0.0505,0.1155,-0.096,-0.02,-0.4135,-0.4305,-0.483,-0.457,-0.3975,-0.141
0.412,-0.1365,-0.1155,0.021,0.125,-0.079,-0.047,-0.4035,-0.419,-0.469,-0.4445,-0.388,-0.1345
0.413,-0.1375,-0.1285,0.009,0.132,-0.073,-0.0595,-0.4045,-0.4265,-0.477,-0.451,-0.3985,-0.1425
0.414,-0.1435,-0.1245,0.019,0.133,-0.081,-0.0525,-0.4125,-0.4265,-0.4795,-0.453,-0.4035,-0.1515
0.415,-0.1385,-0.1165,0.0215,0.1265,-0.08,-0.0475,-0.4215,-0.432,-0.483,-0.4565,-0.405,-0.1535
0.416,-0.14,-0.118,0.0225,0.128,-0.0815,-0.0475,-0.4265,-0.4345,-0.4815,-0.456,-0.4055,-0.1525
0.417,-0.1455,-0.1155,0.03,0.1295,-0.0875,-0.0425,-0.4275,-0.436,-0.4835,-0.4555,-0.404,-0.1505
0.418,-0.137,-0.1135,0.0235,0.1245,-0.08,-0.045,-0.4255,-0.4365,-0.4825,-0.455,-0.406,-0.15
0.419,-0.1365,-0.1155,0.0205,0.125,-0.0785,-0.047,-0.417,-0.427,-0.4745,-0.449,-0.4015,-0.1465
0.42,-0.139,-0.116,0.023,0.1265,-0.081,-0.0465,-0.419,-0.43,-0.4775,-0.4525,-0.4025,-0.1505
0.421,-0.139,-0.115,0.0235,0.126,-0.081,-0.0455,-0.4205,-0.4285,-0.4765,-0.4525,-0.403,-0.1505
0.422,-0.145,-0.121,0.024,0.132,-0.0845,-0.048,-0.4265,-0.432,-0.4805,-0.455,-0.4025,-0.15
0.423,-0.1455,-0.1265,0.019,0.135,-0.0825,-0.0535,-0.4315,-0.4375,-0.486,-0.4585,-0.4075,-0.158
0.424,-0.146,-0.1165,0.0295,0.1305,-0.0875,-0.0435,-0.4155,-0.4275,-0.4785,-0.452,-0.4085,-0.1545
0.425,-0.1435,-0.11,0.0335,0.1255,-0.0885,-0.038,-0.411,-0.423,-0.474,-0.449,-0.407,-0.1475
0.426,-0.1335,-0.108,0.0255,0.12,-0.0795,-0.041,-0.4105,-0.4245,-0.475,-0.449,-0.4035,-0.144
0.427,-0.134,-0.105,0.0285,0.119,-0.081,-0.038,-0.408,-0.422,-0.471,-0.445,-0.4015,-0.1425
0.428,-0.1365,-0.105,0.0315,0.12,-0.084,-0.0365,-0.411,-0.4215,-0.473,-0.447,-0.4035,-0.143
0.429,-0.142,-0.1085,0.0335,0.124,-0.0875,-0.0375,-0.411,-0.4255,-0.48,-0.4555,-0.4085,-0.156
0.43,-0.1435,-0.106,0.0375,0.124,-0.0905,-0.034,-0.413,-0.428,-0.483,-0.459,-0.4105,-0.1605
0.431,-0.138,-0.094,0.0435,0.115,-0.0905,-0.025,-0.417,-0.429,-0.484,-0.4595,-0.409,-0.1585
0.432,-0.137,-0.09,0.047,0.113,-0.092,-0.0215,-0.416,-0.428,-0.483,-0.459,-0.4125,-0.156
0.433,-0.14,-0.0975,0.042,0.118,-0.091,-0.0275,-0.413,-0.425,-0.483,-0.4575,-0.411,-0.1505
0.434,-0.142,-0.1085,0.0335,0.1245,-0.088,-0.037,-0.408,-0.4215,-0.4765,-0.452,-0.4,-0.15
0.435,-0.131,-0.1185,0.0125,0.124,-0.072,-0.0525,-0.4045,-0.419,-0.4755,-0.4485,-0.3975,-0.1415
0.436,-0.134,-0.12,0.014,0.1265,-0.074,-0.0525,-0.4035,-0.419,-0.4765,-0.4495,-0.3965,-0.1435
0.437,-0.1405,-0.114,0.0265,0.1265,-0.083,-0.0435,-0.4045,-0.419,-0.4745,-0.4495,-0.394,-0.141
0.438,-0.132,-0.109,0.023,0.1195,-0.0775,-0.0425,-0.4055,-0.4195,-0.4745,-0.448,-0.4005,-0.1505
0.439,-0.1445,-0.11,0.0345,0.1265,-0.0895,-0.0375,-0.411,-0.422,-0.475,-0.4485,-0.4115,-0.1565
0.44,-0.147,-0.1105,0.0365,0.128,-0.0915,-0.0365,-0.41,-0.4195,-0.471,-0.4455,-0.4015,-0.1365
0.441,-0.1405,-0.113,0.0275,0.126,-0.0835,-0.0425,-0.404,-0.413,-0.463,-0.438,-0.3885,-0.1385
0.442,-0.141,-0.103,0.038,0.121,-0.0895,-0.032,-0.4075,-0.415,-0.4665,-0.441,-0.3975,-0.147
0.443,-0.137,-0.095,0.042,0.115,-0.089,-0.0265,-0.4075,-0.416,-0.4675,-0.4435,-0.401,-0.147
0.444,-0.1355,-0.1095,0.026,0.1215,-0.081,-0.0415,-0.4095,-0.4155,-0.465,-0.441,-0.4005,-0.146
0.445,-0.137,-0.1085,0.0285,0.122,-0.083,-0.0395,-0.4085,-0.4155,-0.463,-0.4405,-0.3995,-0.146
0.446,-0.1445,-0.1155,0.0285,0.129,-0.0865,-0.0435,-0.401,-0.4095,-0.4555,-0.434,-0.394,-0.142
0.447,-0.138,-0.1245,0.013,0.1305,-0.0755,-0.0555,-0.397,-0.4065,-0.454,-0.4295,-0.3915,-0.137
0.448,-0.1325,-0.1225,0.01,0.1265,-0.0715,-0.056,-0.393,-0.4035,-0.45,-0.427,-0.3875,-0.1365
0.449,-0.144,-0.1235,0.0205,0.133,-0.0825,-0.0515,-0.39,-0.4015,-0.448,-0.4265,-0.389,-0.138
0.45,-0.147,-0.1125,0.0345,0.1295,-0.091,-0.039,-0.3905,-0.4025,-0.45,-0.428,-0.3905,-0.141
0.451,-0.1455,-0.093,0.0525,0.1185,-0.0995,-0.02,-0.391,-0.403,-0.4485,-0.425,-0.3905,-0.1405
0.452,-0.1525,-0.0765,0.076,0.114,-0.1145,0.0,-0.388,-0.4015,-0.446,-0.42,-0.3885,-0.136
0.453,-0.1655,-0.06,0.1055,0.112,-0.1355,0.023,-0.378,-0.395,-0.4365,-0.411,-0.385,-0.1285
0.454,-0.1795,-0.0285,0.151,0.1035,-0.165,0.0615,-0.3665,-0.389,-0.426,-0.4025,-0.388,-0.124
0.455,-0.1985,0.0205,0.2185,0.089,-0.2085,0.12,-0.3515,-0.3785,-0.414,-0.391,-0.3915,-0.1225
0.456,-0.22,0.0615,0.281,0.079,-0.2505,0.1715,-0.335,-0.3615,-0.393,-0.3725,-0.397,-0.117
0.457,-0.2385,0.084,0.323,0.077,-0.281,0.2035,-0.3175,-0.347,-0.375,-0.361,-0.395,-0.1115
0.458,-0.246,0.104,0.35,0.071,-0.298,0.2275,-0.3115,-0.341,-0.369,-0.3585,-0.395,-0.111
0.459,-0.249,0.112,0.361,0.0685,-0.305,0.2365,-0.3125,-0.324,-0.3525,-0.3475,-0.399,-0.116
0.46,-0.2615,0.112,0.3735,0.0745,-0.3175,0.243,-0.295,-0.2985,-0.3315,-0.335,-0.4135,-0.121
0.461,-0.257,0.104,0.361,0.0765,-0.309,0.2325,-0.264,-0.263,-0.301,-0.317,-0.423,-0.127
0.462,-0.2555,0.099,0.355,0.078,-0.3055,0.227,-0.2375,-0.217,-0.2545,-0.2795,-0.409,-0.1335
0.463,-0.263,0.101,0.364,0.081,-0.3135,0.2325,-0.226,-0.185,-0.211,-0.238,-0.3855,-0.119
0.464,-0.2435,0.104,0.3475,0.0695,-0.2955,0.226,-0.2195,-0.1555,-0.1715,-0.202,-0.363,-0.1005
0.465,-0.221,0.1255,0.3465,0.0475,-0.2835,0.236,-0.211,-0.1155,-0.119,-0.1515,-0.3325,-0.083
0.466,-0.1965,0.1525,0.349,0.0215,-0.2725,0.251,-0.2165,-0.0915,-0.067,-0.0895,-0.267,-0.042
0.467,-0.172,0.1755,0.3475,-0.002,-0.2595,0.2615,-0.2345,-0.086,-0.0355,-0.036,-0.19,0.0055
0.468,-0.142,0.193,0.335,-0.026,-0.2385,0.2645,-0.2495,-0.068,0.0,0.0095,-0.1215,0.0515
0.469,-0.1025,0.219,0.3215,-0.0585,-0.212,0.2705,-0.2605,-0.0405,0.043,0.0515,-0.06,0.0995
0.47,-0.0595,0.244,0.3035,-0.0925,-0.1815,0.274,-0.273,-0.0135,0.091,0.108,0.0155,0.1475
0.471,0.0025,0.259,0.256,-0.131,-0.1265,0.258,-0.306,-0.0065,0.1275,0.162,0.128,0.214
0.472,0.0685,0.2765,0.2075,-0.173,-0.0695,0.242,-0.3435,-0.0025,0.168,0.2305,0.261,0.3005
0.473,0.1415,0.3,0.158,-0.2215,-0.008,0.2295,-0.373,0.011,0.2145,0.302,0.3935,0.3845
0.474,0.21,0.321,0.1105,-0.266,0.05,0.216,-0.396,0.0315,0.268,0.3835,0.533,0.469
0.475,0.2765,0.3465,0.0695,-0.312,0.104,0.208,-0.416,0.051,0.3255,0.485,0.691,0.5665
0.476,0.35,0.4,0.0495,-0.3755,0.15,0.225,-0.443,0.056,0.377,0.586,0.848,0.6615
0.477,0.4125,0.445,0.032,-0.429,0.19,0.2385,-0.4685,0.0655,0.4385,0.7005,0.999,0.7515
0.478,0.493,0.478,-0.015,-0.486,0.2535,0.232,-0.4965,0.0815,0.5015,0.818,1.1525,0.846
0.479,0.5975,0.524,-0.0735,-0.5615,0.335,0.2255,-0.534,0.11,0.5895,0.9645,1.3395,0.964
0.48,0.689,0.5805,-0.109,-0.6355,0.399,0.236,-0.565,0.126,0.6685,1.1125,1.534,1.0855
0.481,0.7765,0.633,-0.1445,-0.705,0.4605,0.2445,-0.598,0.1195,0.724,1.2485,1.717,1.1915
0.482,0.8725,0.6825,-0.1905,-0.778,0.531,0.2465,-0.634,0.1245,0.801,1.4125,1.917,1.3135
0.483,0.9595,0.725,-0.235,-0.8425,0.597,0.245,-0.6595,0.1315,0.8745,1.5655,2.082,1.413
0.484,1.043,0.7545,-0.288,-0.899,0.6655,0.233,-0.703,0.108,0.9075,1.674,2.2125,1.4795
0.485,1.1265,0.761,-0.365,-0.944,0.7455,0.198,-0.7495,0.064,0.9035,1.7415,2.3275,1.5505
0.486,1.1895,0.742,-0.4475,-0.9665,0.8185,0.147,-0.7795,0.026,0.8955,1.799,2.425,1.6045
0.487,1.2145,0.733,-0.482,-0.974,0.848,0.1255,-0.7945,-0.0045,0.8875,1.842,2.4675,1.619
0.488,1.2205,0.7315,-0.489,-0.9765,0.8545,0.121,-0.821,-0.0835,0.822,1.8335,2.4525,1.618
0.489,1.22,0.729,-0.491,-0.975,0.8555,0.119,-0.8455,-0.1715,0.757,1.824,2.437,1.6145
0.49,1.2225,0.686,-0.5365,-0.9545,0.8795,0.075,-0.836,-0.1925,0.74,1.8165,2.3725,1.5775
0.491,1.2115,0.6185,-0.593,-0.9155,0.902,0.013,-0.8395,-0.2425,0.66,1.723,2.2335,1.497
0.492,1.1595,0.544,-0.615,-0.8525,0.8875,-0.0355,-0.8125,-0.2725,0.5765,1.5865,2.021,1.3865
0.493,1.0965,0.445,-0.6515,-0.771,0.874,-0.1035,-0.783,-0.293,0.4865,1.44,1.764,1.256
0.494,1.0445,0.372,-0.6725,-0.7085,0.8585,-0.1505,-0.7675,-0.334,0.3805,1.299,1.554,1.136
0.495,0.997,0.308,-0.689,-0.653,0.843,-0.1905,-0.6995,-0.3,0.3485,1.213,1.352,1.0115
0.496,0.938,0.2495,-0.6885,-0.5945,0.813,-0.2195,-0.666,-0.3005,0.278,1.1,1.1345,0.89
0.497,0.868,0.211,-0.6565,-0.54,0.762,-0.223,-0.654,-0.348,0.165,0.947,0.9215,0.7675
0.498,0.776,0.1445,-0.6315,-0.461,0.7035,-0.243,-0.636,-0.401,0.0205,0.744,0.656,0.602
0.499,0.6595,0.0915,-0.568,-0.376,0.6135,-0.238,-0.6315,-0.465,-0.1355,0.5305,0.426,0.4695
0.5,0.5535,0.059,-0.4945,-0.3065,0.524,-0.218,-0.625,-0.5205,-0.2595,0.3635,0.2795,0.3895
0.501,0.461,0.039,-0.422,-0.2505,0.4415,-0.1915,-0.627,-0.5875,-0.392,0.1895,0.18,0.3335
0.502,0.373,0.043,-0.3295,-0.2085,0.3515,-0.1435,-0.6215,-0.6475,-0.5005,0.0385,0.0865,0.2775
0.503,0.298,0.0375,-0.2605,-0.1685,0.279,-0.111,-0.6225,-0.709,-0.6155,-0.116,-0.015,0.2325
0.504,0.2155,0.026,-0.19,-0.121,0.2025,-0.082,-0.638,-0.808,-0.788,-0.3355,-0.1185,0.19
0.505,0.1315,-0.0135,-0.1455,-0.0595,0.1385,-0.0795,-0.6435,-0.8905,-0.945,-0.5535,-0.237,0.1235
0.506,0.078,-0.044,-0.1225,-0.0175,0.1005,-0.083,-0.637,-0.921,-1.036,-0.7055,-0.3265,0.0725
0.507,0.043,-0.0595,-0.103,0.0075,0.0735,-0.081,-0.6265,-0.9345,-1.09,-0.807,-0.386,0.029
0.508,0.024,-0.081,-0.1055,0.028,0.065,-0.093,-0.613,-0.9185,-1.0955,-0.849,-0.4055,0.006
0.509,0.0175,-0.0925,-0.11,0.037,0.064,-0.101,-0.5965,-0.8795,-1.0595,-0.835,-0.407,-0.012
0.51,-0.004,-0.0845,-0.08,0.044,0.038,-0.082,-0.5605,-0.8195,-0.994,-0.7805,-0.399,-0.0215
0.511,-0.0375,-0.09,-0.052,0.0635,0.0075,-0.071,-0.527,-0.7665,-0.9355,-0.732,-0.3985,-0.0335
0.512,-0.06,-0.131,-0.071,0.095,0.0055,-0.1005,-0.518,-0.7415,-0.9115,-0.7295,-0.4195,-0.0655
0.513,-0.0695,-0.1575,-0.088,0.113,0.009,-0.1225,-0.511,-0.72,-0.8925,-0.7385,-0.438,-0.0915
0.514,-0.0755,-0.1765,-0.101,0.125,0.013,-0.1385,-0.507,-0.7045,-0.8785,-0.7445,-0.4555,-0.1165
0.515,-0.087,-0.1975,-0.1105,0.1415,0.012,-0.154,-0.503,-0.688,-0.8625,-0.753,-0.475,-0.143
0.516,-0.1,-0.2255,-0.1255,0.162,0.0125,-0.175,-0.4935,-0.668,-0.8405,-0.7525,-0.4975,-0.1705
0.517,-0.1045,-0.2365,-0.133,0.17,0.014,-0.185,-0.4755,-0.636,-0.804,-0.731,-0.5035,-0.1865
0.518,-0.114,-0.235,-0.121,0.174,0.0035,-0.178,-0.447,-0.5945,-0.758,-0.7,-0.499,-0.192
0.519,-0.13,-0.249,-0.1195,0.189,-0.0055,-0.184,-0.4215,-0.556,-0.7175,-0.669,-0.493,-0.199
0.52,-0.137,-0.236,-0.0995,0.186,-0.0185,-0.168,-0.4085,-0.53,-0.6845,-0.6415,-0.491,-0.206
0.521,-0.143,-0.2135,-0.0705,0.1775,-0.036,-0.1415,-0.3985,-0.5135,-0.658,-0.6195,-0.491,-0.2125
0.522,-0.151,-0.2055,-0.054,0.1775,-0.0485,-0.1295,-0.394,-0.5035,-0.639,-0.6015,-0.4905,-0.216
0.523,-0.146,-0.192,-0.046,0.168,-0.05,-0.1185,-0.3975,-0.495,-0.619,-0.5815,-0.4785,-0.205
0.524,-0.1325,-0.162,-0.029,0.1465,-0.0515,-0.095,-0.401,-0.474,-0.5835,-0.5485,-0.4585,-0.188
0.525,-0.1315,-0.143,-0.011,0.1365,-0.0605,-0.0765,-0.395,-0.45,-0.5445,-0.5135,-0.444,-0.1775
0.526,-0.1335,-0.1395,-0.0055,0.1355,-0.064,-0.072,-0.397,-0.4295,-0.513,-0.4815,-0.424,-0.161
0.527,-0.131,-0.133,-0.002,0.1315,-0.0645,-0.0675,-0.408,-0.423,-0.497,-0.4605,-0.413,-0.153
0.528,-0.1225,-0.125,-0.0025,0.123,-0.06,-0.0635,-0.405,-0.413,-0.479,-0.4495,-0.41,-0.1505
0.529,-0.11,-0.1,0.01,0.1045,-0.06,-0.0445,-0.4005,-0.396,-0.456,-0.4335,-0.3975,-0.136
0.53,-0.1135,-0.0955,0.018,0.1045,-0.066,-0.0385,-0.3905,-0.3845,-0.445,-0.4225,-0.3955,-0.1355
0.531,-0.112,-0.1005,0.0115,0.106,-0.0615,-0.0445,-0.384,-0.3805,-0.4455,-0.4255,-0.4045,-0.1415
0.532,-0.108,-0.098,0.01,0.1025,-0.059,-0.044,-0.3905,-0.3855,-0.449,-0.432,-0.4155,-0.152
0.533,-0.1155,-0.109,0.0065,0.1115,-0.061,-0.051,-0.392,-0.387,-0.452,-0.4385,-0.426,-0.165
0.534,-0.1175,-0.117,0.0005,0.1165,-0.059,-0.058,-0.39,-0.3845,-0.449,-0.441,-0.424,-0.164
0.535,-0.1155,-0.115,0.0005,0.1145,-0.058,-0.057,-0.391,-0.3855,-0.448,-0.4425,-0.4265,-0.167
0.536,-0.1065,-0.1095,-0.003,0.1075,-0.052,-0.056,-0.3915,-0.3865,-0.4505,-0.445,-0.4295,-0.166
0.537,-0.1055,-0.099,0.006,0.102,-0.056,-0.046,-0.391,-0.382,-0.4455,-0.442,-0.43,-0.167
0.538,-0.111,-0.092,0.019,0.101,-0.065,-0.036,-0.39,-0.383,-0.45,-0.448,-0.437,-0.174
0.539,-0.1245,-0.0925,0.032,0.108,-0.0785,-0.03,-0.3855,-0.387,-0.452,-0.451,-0.4365,-0.1705
0.54,-0.1315,-0.0955,0.036,0.1125,-0.0835,-0.0295,-0.385,-0.3875,-0.449,-0.448,-0.4355,-0.168
0.541,-0.126,-0.1105,0.016,0.1175,-0.071,-0.047,-0.3825,-0.3835,-0.447,-0.4465,-0.4325,-0.1735
0.542,-0.1315,-0.116,0.015,0.123,-0.0735,-0.0505,-0.3845,-0.387,-0.4485,-0.447,-0.444,-0.1835
0.543,-0.1295,-0.1175,0.012,0.1225,-0.0705,-0.0525,-0.386,-0.388,-0.45,-0.4485,-0.446,-0.1665
0.544,-0.1315,-0.109,0.0225,0.1195,-0.077,-0.043,-0.383,-0.385,-0.448,-0.4475,-0.4255,-0.1515
0.545,-0.1315,-0.09,0.042,0.11,-0.0865,-0.024,-0.3825,-0.384,-0.446,-0.4465,-0.4225,-0.1615
0.546,-0.122,-0.0915,0.0305,0.106,-0.0765,-0.03,-0.38,-0.3795,-0.442,-0.4435,-0.429,-0.172
0.547,-0.1235,-0.094,0.03,0.108,-0.077,-0.0315,-0.3815,-0.381,-0.4455,-0.4475,-0.4375,-0.1775
0.548,-0.12,-0.1025,0.0175,0.1105,-0.0685,-0.042,-0.381,-0.3785,-0.444,-0.4485,-0.436,-0.17
0.549,-0.128,-0.1135,0.015,0.12,-0.0715,-0.049,-0.38,-0.378,-0.444,-0.446,-0.431,-0.17
0.55,-0.1315,-0.1035,0.028,0.117,-0.08,-0.0375,-0.3835,-0.38,-0.447,-0.448,-0.4325,-0.178
0.551,-0.1365,-0.101,0.035,0.118,-0.0855,-0.0325,-0.39,-0.3825,-0.4475,-0.4505,-0.437,-0.1805
0.552,-0.1525,-0.1045,0.048,0.128,-0.1,-0.028,-0.3985,-0.388,-0.4515,-0.4545,-0.444,-0.1755
0.553,-0.143,-0.1035,0.0395,0.1225,-0.0915,-0.032,-0.395,-0.3855,-0.448,-0.455,-0.4405,-0.1735
0.554,-0.14,-0.1205,0.019,0.1295,-0.0795,-0.0505,-0.394,-0.383,-0.447,-0.4525,-0.436,-0.174
0.555,-0.135,-0.125,0.01,0.129,-0.073,-0.057,-0.399,-0.385,-0.4485,-0.451,-0.4365,-0.1715
0.556,-0.128,-0.099,0.029,0.113,-0.0785,-0.035,-0.386,-0.379,-0.443,-0.446,-0.4335,-0.171
0.557,-0.1345,-0.096,0.0385,0.1145,-0.0865,-0.0285,-0.3835,-0.382,-0.4455,-0.449,-0.4365,-0.173
0.558,-0.1335,-0.1,0.0335,0.116,-0.0835,-0.033,-0.391,-0.386,-0.4465,-0.45,-0.438,-0.1745
0.559,-0.1295,-0.093,0.0365,0.1105,-0.083,-0.028,-0.3935,-0.382,-0.442,-0.447,-0.4365,-0.1725
0.56,-0.13,-0.0915,0.0385,0.11,-0.0845,-0.026,-0.391,-0.3835,-0.441,-0.4475,-0.4385,-0.175
0.561,-0.134,-0.093,0.041,0.113,-0.0875,-0.026,-0.387,-0.3815,-0.4405,-0.4465,-0.437,-0.173
0.562,-0.1325,-0.098,0.0345,0.115,-0.0835,-0.032,-0.3875,-0.38,-0.4385,-0.446,-0.4355,-0.1715
0.563,-0.1265,-0.0985,0.028,0.112,-0.0775,-0.035,-0.389,-0.379,-0.436,-0.444,-0.434,-0.1695
0.564,-0.1295,-0.0945,0.035,0.1115,-0.0825,-0.0295,-0.3925,-0.383,-0.4385,-0.446,-0.4375,-0.17
0.565,-0.132,-0.0935,0.038,0.112,-0.085,-0.0275,-0.3895,-0.3865,-0.4405,-0.449,-0.44,-0.1755
0.566,-0.132,-0.0915,0.0405,0.111,-0.0865,-0.025,-0.391,-0.385,-0.4395,-0.449,-0.439,-0.1735
0.567,-0.1345,-0.091,0.0435,0.112,-0.089,-0.0235,-0.3945,-0.3875,-0.44,-0.4495,-0.4415,-0.177
0.568,-0.1245,-0.0915,0.033,0.1075,-0.079,-0.029,-0.394,-0.3865,-0.439,-0.4495,-0.436,-0.1735
0.569,-0.1205,-0.0845,0.036,0.102,-0.0785,-0.024,-0.395,-0.385,-0.437,-0.448,-0.432,-0.1695
0.57,-0.1285,-0.088,0.0405,0.108,-0.0845,-0.0235,-0.393,-0.3835,-0.4375,-0.4475,-0.4345,-0.172
0.571,-0.1295,-0.102,0.028,0.115,-0.079,-0.0365,-0.3895,-0.379,-0.434,-0.443,-0.43,-0.171
0.572,-0.1365,-0.108,0.029,0.1215,-0.083,-0.039,-0.3885,-0.379,-0.4345,-0.4435,-0.4355,-0.169
0.573,-0.1315,-0.104,0.028,0.117,-0.0795,-0.0375,-0.386,-0.3745,-0.43,-0.4415,-0.4285,-0.164
0.574,-0.1425,-0.1055,0.037,0.1235,-0.0895,-0.034,-0.382,-0.3695,-0.4265,-0.4355,-0.417,-0.1605
0.575,-0.1515,-0.106,0.0455,0.128,-0.0985,-0.03,-0.3835,-0.375,-0.4355,-0.4425,-0.4215,-0.1615
0.576,-0.133,-0.1025,0.03,0.117,-0.0815,-0.0365,-0.3885,-0.3725,-0.4305,-0.4405,-0.4275,-0.166
0.577,-0.1435,-0.101,0.0425,0.1215,-0.093,-0.029,-0.3875,-0.3685,-0.4255,-0.4365,-0.433,-0.1695
0.578,-0.14,-0.095,0.045,0.117,-0.0925,-0.025,-0.382,-0.37,-0.428,-0.4375,-0.4275,-0.1655
0.579,-0.1325,-0.0995,0.0325,0.1155,-0.0825,-0.0335,-0.3825,-0.3705,-0.4285,-0.437,-0.43,-0.1615
0.58,-0.137,-0.0895,0.0475,0.1125,-0.092,-0.021,-0.3805,-0.369,-0.426,-0.4345,-0.4275,-0.168
0.581,-0.1335,-0.074,0.0595,0.1035,-0.0965,-0.007,-0.383,-0.3715,-0.4265,-0.436,-0.4255,-0.171
0.582,-0.133,-0.0785,0.0545,0.1055,-0.094,-0.0115,-0.383,-0.371,-0.428,-0.439,-0.4325,-0.1755
0.583,-0.142,-0.0945,0.0475,0.117,-0.0945,-0.023,-0.395,-0.3735,-0.4285,-0.44,-0.433,-0.1765
0.584,-0.1475,-0.1035,0.044,0.125,-0.096,-0.0295,-0.4035,-0.3795,-0.431,-0.4425,-0.4385,-0.1725
0.585,-0.1405,-0.1025,0.0375,0.1205,-0.089,-0.032,-0.383,-0.368,-0.4225,-0.4365,-0.4335,-0.175
0.586,-0.139,-0.1015,0.0375,0.1195,-0.088,-0.032,-0.3815,-0.362,-0.419,-0.435,-0.43,-0.176
0.587,-0.1405,-0.092,0.0485,0.1155,-0.0945,-0.0215,-0.3805,-0.3635,-0.4205,-0.4355,-0.434,-0.1785
0.588,-0.1385,-0.0875,0.0505,0.1125,-0.0945,-0.018,-0.3805,-0.3675,-0.423,-0.436,-0.4335,-0.1795
0.589,-0.124,-0.0915,0.033,0.107,-0.0785,-0.029,-0.3815,-0.3665,-0.4225,-0.435,-0.428,-0.171
0.59,-0.1245,-0.093,0.0315,0.108,-0.0775,-0.0305,-0.375,-0.361,-0.4165,-0.4305,-0.421,-0.1705
0.591,-0.133,-0.0985,0.0345,0.115,-0.0835,-0.032,-0.3805,-0.362,-0.4165,-0.4285,-0.421,-0.1705
0.592,-0.1325,-0.1005,0.032,0.116,-0.0825,-0.034,-0.3775,-0.3605,-0.415,-0.4265,-0.417,-0.1635
0.593,-0.1385,-0.091,0.0475,0.1135,-0.0925,-0.0215,-0.371,-0.3555,-0.4105,-0.4215,-0.416,-0.168
0.594,-0.133,-0.086,0.0465,0.109,-0.09,-0.0195,-0.3745,-0.353,-0.408,-0.4195,-0.4175,-0.1635
0.595,-0.121,-0.086,0.035,0.103,-0.078,-0.0255,-0.3765,-0.359,-0.4125,-0.4245,-0.4125,-0.1625
0.596,-0.1215,-0.079,0.043,0.1,-0.082,-0.018,-0.375,-0.355,-0.4095,-0.423,-0.415,-0.1685
0.597,-0.1315,-0.0745,0.057,0.1025,-0.094,-0.0085,-0.3715,-0.352,-0.407,-0.425,-0.417,-0.1615
0.598,-0.1405,-0.079,0.0615,0.1085,-0.101,-0.0085,-0.371,-0.3535,-0.409,-0.4245,-0.419,-0.162
0.599,-0.1365,-0.0805,0.056,0.108,-0.096,-0.012,-0.373,-0.35,-0.404,-0.417,-0.419,-0.1605
0.6,-0.133,-0.073,0.06,0.103,-0.0965,-0.0065,-0.3705,-0.35,-0.403,-0.4145,-0.4125,-0.1565
0.601,-0.133,-0.0725,0.0605,0.1025,-0.097,-0.0055,-0.371,-0.349,-0.401,-0.415,-0.413,-0.159
0.602,-0.1265,-0.0715,0.055,0.099,-0.091,-0.008,-0.3735,-0.3465,-0.398,-0.413,-0.4165,-0.155
0.603,-0.127,-0.0715,0.0555,0.099,-0.0915,-0.0075,-0.3715,-0.3465,-0.3995,-0.4105,-0.411,-0.1575
0.604,-0.122,-0.0835,0.039,0.1025,-0.0805,-0.022,-0.371,-0.3465,-0.398,-0.4115,-0.4045,-0.1545
0.605,-0.122,-0.09,0.032,0.105,-0.077,-0.0285,-0.369,-0.339,-0.39,-0.409,-0.4105,-0.158
0.606,-0.1255,-0.0845,0.041,0.1045,-0.0835,-0.0215,-0.3695,-0.338,-0.3885,-0.4075,-0.4135,-0.1585
0.607,-0.1265,-0.083,0.0435,0.1045,-0.085,-0.0195,-0.3725,-0.3385,-0.3885,-0.4065,-0.4045,-0.1505
0.608,-0.13,-0.089,0.0415,0.1085,-0.086,-0.0235,-0.375,-0.338,-0.3905,-0.4065,-0.405,-0.157
0.609,-0.1305,-0.0875,0.043,0.1085,-0.087,-0.022,-0.3765,-0.3385,-0.391,-0.4065,-0.4075,-0.16
0.61,-0.1245,-0.0765,0.048,0.1005,-0.0865,-0.014,-0.3785,-0.3375,-0.3875,-0.405,-0.4015,-0.157
0.611,-0.123,-0.085,0.038,0.1035,-0.0805,-0.0235,-0.3755,-0.3355,-0.385,-0.402,-0.399,-0.1505
0.612,-0.13,-0.0995,0.0305,0.114,-0.08,-0.0345,-0.372,-0.3285,-0.3785,-0.396,-0.397,-0.148
0.613,-0.121,-0.099,0.022,0.1095,-0.0715,-0.0385,-0.3805,-0.3295,-0.3785,-0.395,-0.3945,-0.1495
0.614,-0.115,-0.0865,0.0285,0.1005,-0.072,-0.0285,-0.384,-0.3335,-0.3825,-0.397,-0.4005,-0.162
0.615,-0.118,-0.0775,0.0405,0.0975,-0.0795,-0.018,-0.3785,-0.3335,-0.382,-0.3985,-0.4065,-0.166
0.616,-0.1225,-0.082,0.041,0.102,-0.082,-0.02,-0.3735,-0.3305,-0.38,-0.397,-0.402,-0.1545
0.617,-0.122,-0.0805,0.0415,0.101,-0.082,-0.019,-0.3725,-0.329,-0.375,-0.3945,-0.3975,-0.1515
0.618,-0.122,-0.0815,0.041,0.1015,-0.082,-0.02,-0.3675,-0.325,-0.37,-0.3885,-0.396,-0.153
0.619,-0.1195,-0.0825,0.037,0.101,-0.0785,-0.0225,-0.3645,-0.3195,-0.3665,-0.3865,-0.3965,-0.151
0.62,-0.121,-0.086,0.035,0.103,-0.078,-0.025,-0.367,-0.323,-0.3655,-0.3855,-0.3945,-0.1485
0.621,-0.1395,-0.079,0.0605,0.1085,-0.1,-0.009,-0.368,-0.3235,-0.3655,-0.385,-0.406,-0.1605
0.622,-0.1265,-0.067,0.0595,0.0965,-0.093,-0.0035,-0.368,-0.3205,-0.3635,-0.3855,-0.4145,-0.1555
0.623,-0.123,-0.069,0.054,0.0955,-0.0885,-0.007,-0.362,-0.315,-0.357,-0.3775,-0.3935,-0.1505
0.624,-0.127,-0.0695,0.058,0.098,-0.0925,-0.0055,-0.365,-0.313,-0.353,-0.373,-0.3955,-0.1605
0.625,-0.133,-0.07,0.063,0.1015,-0.098,-0.0035,-0.361,-0.313,-0.3515,-0.37,-0.3955,-0.1555
0.626,-0.138,-0.0725,0.065,0.105,-0.1015,-0.0035,-0.365,-0.31,-0.346,-0.366,-0.396,-0.153
0.627,-0.125,-0.087,0.038,0.1055,-0.0815,-0.0245,-0.379,-0.3155,-0.3505,-0.369,-0.4055,-0.1585
0.628,-0.123,-0.092,0.031,0.1065,-0.077,-0.03,-0.381,-0.3175,-0.355,-0.372,-0.396,-0.1625
0.629,-0.115,-0.076,0.039,0.095,-0.077,-0.018,-0.385,-0.309,-0.344,-0.364,-0.3925,-0.158
0.63,-0.1215,-0.076,0.0455,0.0985,-0.0835,-0.015,-0.381,-0.3075,-0.3425,-0.362,-0.393,-0.1605
0.631,-0.124,-0.078,0.046,0.101,-0.085,-0.0155,-0.3775,-0.3095,-0.3485,-0.367,-0.397,-0.1665
0.632,-0.1195,-0.0725,0.047,0.096,-0.083,-0.0125,-0.377,-0.3055,-0.3435,-0.363,-0.3955,-0.176
0.633,-0.1215,-0.071,0.051,0.096,-0.0865,-0.0095,-0.371,-0.302,-0.3375,-0.3585,-0.399,-0.1715
0.634,-0.12,-0.075,0.0455,0.097,-0.083,-0.0145,-0.367,-0.298,-0.332,-0.3525,-0.3875,-0.14
0.635,-0.129,-0.0775,0.051,0.103,-0.09,-0.013,-0.3685,-0.296,-0.328,-0.3495,-0.3695,-0.132
0.636,-0.1305,-0.0745,0.056,0.102,-0.0935,-0.009,-0.37,-0.2965,-0.3305,-0.349,-0.37,-0.1335
0.637,-0.1245,-0.0745,0.05,0.0995,-0.0875,-0.012,-0.3685,-0.291,-0.323,-0.343,-0.373,-0.134
0.638,-0.123,-0.075,0.048,0.099,-0.0855,-0.0135,-0.363,-0.282,-0.3115,-0.336,-0.3745,-0.142
0.639,-0.121,-0.073,0.0485,0.097,-0.085,-0.012,-0.3605,-0.28,-0.3095,-0.3295,-0.3715,-0.1395
0.64,-0.1205,-0.0615,0.059,0.091,-0.0895,-0.001,-0.3655,-0.2865,-0.315,-0.332,-0.368,-0.1365
0.641,-0.114,-0.0605,0.053,0.087,-0.0835,-0.0035,-0.368,-0.289,-0.3195,-0.337,-0.365,-0.136
0.642,-0.1105,-0.0625,0.0475,0.086,-0.079,-0.007,-0.366,-0.2775,-0.3065,-0.326,-0.36,-0.1305
0.643,-0.109,-0.062,0.047,0.0855,-0.078,-0.0075,-0.365,-0.27,-0.2975,-0.319,-0.354,-0.127
0.644,-0.1115,-0.0705,0.041,0.0905,-0.076,-0.0145,-0.366,-0.2695,-0.2965,-0.3165,-0.3505,-0.124
0.645,-0.117,-0.0735,0.0435,0.095,-0.0805,-0.0145,-0.369,-0.269,-0.294,-0.314,-0.3495,-0.1215
0.646,-0.1135,-0.0695,0.044,0.0915,-0.0785,-0.0125,-0.3705,-0.268,-0.289,-0.311,-0.3485,-0.1225
0.647,-0.1095,-0.0765,0.033,0.093,-0.0715,-0.0215,-0.3655,-0.2615,-0.282,-0.305,-0.3495,-0.113
0.648,-0.1035,-0.083,0.0205,0.093,-0.062,-0.031,-0.364,-0.259,-0.279,-0.302,-0.335,-0.108
0.649,-0.1035,-0.0785,0.025,0.0905,-0.064,-0.0265,-0.365,-0.2595,-0.2775,-0.2985,-0.3315,-0.119
0.65,-0.103,-0.077,0.026,0.09,-0.0645,-0.0255,-0.358,-0.2555,-0.2745,-0.2945,-0.334,-0.1125
0.651,-0.1035,-0.0645,0.039,0.0835,-0.071,-0.0125,-0.357,-0.2475,-0.2665,-0.2865,-0.326,-0.1005
0.652,-0.1015,-0.0555,0.046,0.078,-0.074,-0.0045,-0.3645,-0.2495,-0.2655,-0.2865,-0.3295,-0.1055
0.653,-0.091,-0.0575,0.0335,0.074,-0.0625,-0.0115,-0.373,-0.2555,-0.27,-0.284,-0.325,-0.104
0.654,-0.0945,-0.048,0.0465,0.071,-0.0705,-0.0005,-0.376,-0.252,-0.265,-0.28,-0.323,-0.1025
0.655,-0.093,-0.0375,0.0555,0.065,-0.074,0.009,-0.372,-0.2465,-0.258,-0.28,-0.3215,-0.103
0.656,-0.084,-0.034,0.05,0.059,-0.067,0.008,-0.372,-0.2475,-0.258,-0.278,-0.321,-0.0995
0.657,-0.084,-0.0325,0.051,0.058,-0.0675,0.0095,-0.369,-0.2445,-0.2525,-0.2695,-0.312,-0.0955
0.658,-0.084,-0.034,0.05,0.059,-0.067,0.008,-0.367,-0.2385,-0.2455,-0.262,-0.3115,-0.096
0.659,-0.0785,-0.0285,0.0495,0.053,-0.064,0.011,-0.37,-0.24,-0.2455,-0.2625,-0.315,-0.0955
0.66,-0.076,-0.0235,0.0525,0.0495,-0.064,0.0145,-0.3705,-0.237,-0.2405,-0.257,-0.2995,-0.086
0.661,-0.07,-0.0265,0.0435,0.048,-0.0565,0.009,-0.376,-0.2375,-0.2395,-0.257,-0.2985,-0.0875
0.662,-0.0665,-0.0275,0.039,0.0465,-0.0525,0.006,-0.3785,-0.2385,-0.239,-0.255,-0.304,-0.094
0.663,-0.0695,-0.025,0.044,0.047,-0.057,0.0095,-0.374,-0.2335,-0.232,-0.247,-0.297,-0.0805
0.664,-0.065,-0.02,0.045,0.042,-0.055,0.013,-0.373,-0.23,-0.226,-0.2385,-0.283,-0.072
0.665,-0.0645,-0.015,0.05,0.0395,-0.0575,0.018,-0.3735,-0.228,-0.223,-0.232,-0.279,-0.08
0.666,-0.0655,-0.0115,0.054,0.038,-0.0595,0.0215,-0.373,-0.2275,-0.221,-0.2285,-0.28,-0.0745
0.667,-0.06,-0.0045,0.0555,0.032,-0.058,0.0255,-0.3725,-0.222,-0.2115,-0.219,-0.2725,-0.0675
0.668,-0.0605,-0.005,0.0555,0.0325,-0.058,0.0255,-0.3695,-0.2165,-0.204,-0.2125,-0.2675,-0.0705
0.669,-0.0585,0.0,0.0585,0.029,-0.0585,0.0295,-0.3735,-0.2175,-0.2055,-0.2105,-0.262,-0.0675
0.67,-0.0505,0.0055,0.056,0.0225,-0.053,0.031,-0.379,-0.218,-0.2045,-0.2095,-0.2595,-0.056
0.671,-0.049,0.0065,0.0555,0.021,-0.052,0.0315,-0.3775,-0.2175,-0.2015,-0.205,-0.2555,-0.057
0.672,-0.0485,0.0105,0.0595,0.019,-0.054,0.035,-0.378,-0.2135,-0.1965,-0.1985,-0.2435,-0.058
0.673,-0.0455,0.005,0.0505,0.02,-0.048,0.028,-0.379,-0.2135,-0.192,-0.1945,-0.2345,-0.044
0.674,-0.042,0.009,0.051,0.016,-0.0465,0.03,-0.3745,-0.208,-0.1845,-0.184,-0.2245,-0.031
0.675,-0.038,0.0115,0.0495,0.013,-0.0435,0.031,-0.38,-0.2065,-0.1825,-0.1805,-0.2205,-0.032
0.676,-0.0225,0.0195,0.042,0.0015,-0.0325,0.031,-0.3805,-0.2045,-0.178,-0.1785,-0.22,-0.033
0.677,-0.0285,0.019,0.0475,0.0045,-0.038,0.0335,-0.396,-0.2085,-0.1795,-0.179,-0.2175,-0.0295
0.678,-0.037,0.004,0.041,0.016,-0.039,0.023,-0.4165,-0.222,-0.189,-0.183,-0.214,-0.03
0.679,-0.021,0.0165,0.0375,0.002,-0.0295,0.0275,-0.3865,-0.2005,-0.1695,-0.165,-0.201,-0.02
0.68,-0.019,0.0255,0.0445,-0.0035,-0.032,0.0355,-0.372,-0.192,-0.1625,-0.159,-0.194,-0.013
0.681,-0.0125,0.028,0.04,-0.008,-0.0265,0.034,-0.3855,-0.2035,-0.1705,-0.164,-0.195,-0.0145
0.682,-0.0105,0.037,0.0475,-0.0135,-0.029,0.0425,-0.394,-0.2085,-0.1745,-0.166,-0.194,-0.0135
0.683,-0.0105,0.045,0.0555,-0.0175,-0.033,0.051,-0.3875,-0.2045,-0.168,-0.1585,-0.1895,-0.007
0.684,-0.0005,0.0525,0.0535,-0.0265,-0.027,0.053,-0.3845,-0.1985,-0.163,-0.153,-0.1815,-0.0035
0.685,-0.002,0.0475,0.05,-0.023,-0.026,0.049,-0.393,-0.208,-0.173,-0.1595,-0.177,-0.0025
0.686,0.003,0.0445,0.0415,-0.024,-0.0195,0.0435,-0.3915,-0.201,-0.162,-0.1495,-0.1735,0.001
0.687,0.0025,0.045,0.043,-0.024,-0.02,0.044,-0.389,-0.197,-0.157,-0.143,-0.1645,0.009
0.688,0.004,0.05,0.046,-0.0275,-0.021,0.048,-0.392,-0.199,-0.161,-0.1435,-0.1605,0.009
0.689,0.0055,0.063,0.0575,-0.0345,-0.026,0.0605,-0.395,-0.1975,-0.1605,-0.143,-0.1645,0.008
0.69,0.003,0.066,0.0625,-0.0345,-0.03,0.0645,-0.394,-0.199,-0.1605,-0.1425,-0.1575,0.0165
0.691,0.0145,0.067,0.052,-0.041,-0.019,0.0595,-0.398,-0.203,-0.1635,-0.1435,-0.1545,0.0155
0.692,0.0125,0.064,0.051,-0.0385,-0.019,0.0575,-0.3985,-0.2035,-0.164,-0.143,-0.1565,0.0155
0.693,0.0135,0.056,0.0425,-0.035,-0.014,0.0495,-0.396,-0.2,-0.16,-0.1385,-0.149,0.021
0.694,0.019,0.0645,0.045,-0.042,-0.013,0.055,-0.399,-0.2025,-0.16,-0.1405,-0.148,0.027
0.695,0.0235,0.063,0.039,-0.0435,-0.0075,0.051,-0.401,-0.2025,-0.1595,-0.1405,-0.1435,0.0275
0.696,0.0235,0.058,0.0345,-0.041,-0.0055,0.0465,-0.3995,-0.2005,-0.157,-0.137,-0.136,0.028
0.697,0.0225,0.062,0.039,-0.0425,-0.008,0.0505,-0.396,-0.1985,-0.156,-0.1355,-0.1365,0.034
0.698,0.0275,0.0555,0.0275,-0.042,0.0,0.042,-0.396,-0.198,-0.156,-0.134,-0.132,0.0375
0.699,0.017,0.057,0.0405,-0.0375,-0.0115,0.049,-0.397,-0.1995,-0.158,-0.134,-0.133,0.0395
0.7,0.0175,0.0575,0.04,-0.0375,-0.011,0.049,-0.398,-0.201,-0.159,-0.136,-0.135,0.0405
0.701,0.0235,0.062,0.038,-0.043,-0.007,0.0505,-0.4,-0.2035,-0.1605,-0.136,-0.134,0.042
0.702,0.0255,0.07,0.0435,-0.0485,-0.009,0.057,-0.4025,-0.207,-0.163,-0.137,-0.1355,0.0445
0.703,0.023,0.064,0.0405,-0.044,-0.0085,0.0525,-0.404,-0.209,-0.1645,-0.1375,-0.13,0.047
0.704,0.0195,0.063,0.0435,-0.0415,-0.012,0.0535,-0.4,-0.207,-0.162,-0.1335,-0.1275,0.044
0.705,0.024,0.0605,0.036,-0.043,-0.006,0.0485,-0.3995,-0.207,-0.1615,-0.1345,-0.126,0.046
0.706,0.0255,0.0615,0.0355,-0.044,-0.005,0.0485,-0.4035,-0.2115,-0.168,-0.1415,-0.123,0.0495
0.707,0.024,0.075,0.0505,-0.05,-0.013,0.063,-0.411,-0.222,-0.1805,-0.1515,-0.132,0.042
0.708,0.025,0.0875,0.062,-0.057,-0.018,0.075,-0.4185,-0.2305,-0.193,-0.1605,-0.1355,0.0395
0.709,0.0265,0.09,0.063,-0.0585,-0.018,0.0765,-0.4165,-0.228,-0.191,-0.1585,-0.13,0.0425
0.71,0.0255,0.077,0.051,-0.052,-0.0125,0.0645,-0.417,-0.227,-0.191,-0.1595,-0.1265,0.0475
0.711,0.0365,0.0725,0.0355,-0.055,0.0005,0.0545,-0.418,-0.2285,-0.192,-0.162,-0.1235,0.05
0.712,0.039,0.075,0.036,-0.0575,0.0015,0.0555,-0.416,-0.228,-0.1925,-0.161,-0.1265,0.048
0.713,0.032,0.062,0.029,-0.0475,0.0015,0.0455,-0.4145,-0.2285,-0.196,-0.163,-0.1255,0.044
0.714,0.0385,0.0605,0.0215,-0.0495,0.0085,0.0415,-0.4155,-0.2335,-0.2015,-0.169,-0.1175,0.049
0.715,0.0375,0.0715,0.033,-0.055,0.0025,0.0525,-0.4175,-0.2395,-0.2055,-0.175,-0.127,0.0475
0.716,0.0335,0.0825,0.0485,-0.0585,-0.0075,0.066,-0.419,-0.243,-0.2055,-0.177,-0.1375,0.0405
0.717,0.0355,0.091,0.055,-0.064,-0.01,0.0735,-0.4215,-0.2445,-0.2085,-0.1785,-0.135,0.042
0.718,0.032,0.0905,0.0585,-0.062,-0.013,0.0745,-0.422,-0.249,-0.2145,-0.185,-0.136,0.0405
0.719,0.023,0.087,0.064,-0.0555,-0.02,0.0755,-0.4205,-0.2515,-0.2185,-0.1875,-0.1395,0.043
0.72,0.033,0.0865,0.053,-0.0605,-0.0095,0.07,-0.4185,-0.249,-0.2175,-0.185,-0.14,0.0375
0.721,0.045,0.0855,0.04,-0.066,0.003,0.063,-0.4225,-0.25,-0.2195,-0.1895,-0.145,0.0295
0.722,0.042,0.0805,0.038,-0.062,0.0025,0.0595,-0.4245,-0.253,-0.224,-0.1975,-0.1485,0.0265
0.723,0.04,0.0745,0.034,-0.0575,0.003,0.0545,-0.4225,-0.2545,-0.2265,-0.2,-0.149,0.0285
0.724,0.031,0.0515,0.0205,-0.0415,0.0055,0.036,-0.414,-0.2465,-0.222,-0.195,-0.145,0.0375
0.725,0.025,0.045,0.019,-0.0355,0.0035,0.032,-0.4065,-0.244,-0.22,-0.1945,-0.1465,0.0345
0.726,0.0195,0.051,0.0315,-0.0355,-0.006,0.0415,-0.408,-0.252,-0.227,-0.203,-0.1575,0.029
0.727,0.0135,0.0485,0.035,-0.0315,-0.011,0.0425,-0.414,-0.255,-0.233,-0.209,-0.159,0.0235
0.728,0.013,0.0565,0.0435,-0.035,-0.015,0.0505,-0.4155,-0.2575,-0.2365,-0.2125,-0.1615,0.0135
0.729,0.0095,0.0615,0.052,-0.0355,-0.021,0.057,-0.4175,-0.2625,-0.245,-0.2195,-0.177,0.01
0.73,0.0115,0.0645,0.053,-0.0385,-0.0205,0.059,-0.4205,-0.269,-0.2515,-0.2255,-0.1765,0.012
0.731,0.0145,0.0685,0.0535,-0.0415,-0.0195,0.061,-0.418,-0.2695,-0.252,-0.227,-0.1705,0.013
0.732,0.01,0.0665,0.0565,-0.0385,-0.0235,0.062,-0.415,-0.265,-0.2505,-0.2275,-0.176,0.009
0.733,0.0065,0.0555,0.049,-0.0315,-0.0215,0.0525,-0.414,-0.2665,-0.251,-0.2265,-0.177,0.0055
0.734,-0.006,0.0475,0.0535,-0.021,-0.03,0.051,-0.414,-0.2695,-0.253,-0.229,-0.182,0.0045
0.735,-0.012,0.0465,0.0585,-0.0175,-0.035,0.0525,-0.413,-0.2745,-0.2605,-0.2405,-0.1885,-0.0005
0.736,-0.0155,0.0405,0.056,-0.013,-0.0355,0.0485,-0.4135,-0.276,-0.2665,-0.243,-0.187,-0.003
0.737,-0.025,0.034,0.059,-0.005,-0.042,0.0465,-0.4115,-0.277,-0.268,-0.243,-0.193,-0.008
0.738,-0.0225,0.029,0.0515,-0.0035,-0.037,0.0405,-0.412,-0.2775,-0.2695,-0.246,-0.193,-0.0065
0.739,-0.0235,0.027,0.0505,-0.002,-0.037,0.039,-0.413,-0.2795,-0.2735,-0.249,-0.1945,-0.007
0.74,-0.0205,0.0285,0.049,-0.004,-0.035,0.039,-0.4105,-0.288,-0.2805,-0.258,-0.2015,-0.0125
0.741,-0.0235,0.0395,0.063,-0.008,-0.0435,0.0515,-0.417,-0.2865,-0.278,-0.2585,-0.202,-0.0105
0.742,-0.033,0.0345,0.0675,-0.001,-0.0505,0.0515,-0.4155,-0.287,-0.2765,-0.259,-0.2055,-0.0135
0.743,-0.036,0.021,0.057,0.0075,-0.0465,0.0395,-0.41,-0.2875,-0.2795,-0.259,-0.207,-0.016
0.744,-0.034,0.022,0.056,0.0055,-0.045,0.0395,-0.4095,-0.2865,-0.28,-0.2575,-0.2105,-0.015
0.745,-0.0305,0.018,0.0485,0.006,-0.0395,0.0335,-0.4105,-0.292,-0.2825,-0.26,-0.214,-0.0205
0.746,-0.028,0.0145,0.042,0.0065,-0.035,0.0285,-0.4115,-0.2955,-0.288,-0.264,-0.218,-0.024
0.747,-0.0305,0.018,0.0485,0.006,-0.0395,0.0335,-0.412,-0.3005,-0.2925,-0.27,-0.2235,-0.0275
0.748,-0.034,0.0235,0.0575,0.005,-0.0455,0.0405,-0.413,-0.3025,-0.296,-0.272,-0.228,-0.0305
0.749,-0.042,0.0115,0.0535,0.015,-0.0475,0.033,-0.4115,-0.303,-0.2975,-0.275,-0.2325,-0.0345
0.75,-0.053,0.0065,0.06,0.023,-0.0565,0.0335,-0.411,-0.305,-0.299,-0.277,-0.2355,-0.0375
0.751,-0.043,0.013,0.0565,0.015,-0.0495,0.035,-0.4115,-0.3065,-0.3035,-0.2775,-0.2405,-0.038
0.752,-0.041,0.004,0.0455,0.018,-0.043,0.025,-0.4115,-0.307,-0.302,-0.28,-0.238,-0.035
0.753,-0.0435,0.007,0.0505,0.018,-0.047,0.029,-0.4065,-0.305,-0.3005,-0.282,-0.239,-0.0385
0.754,-0.043,0.011,0.054,0.016,-0.0485,0.0325,-0.406,-0.3065,-0.305,-0.283,-0.242,-0.0395
0.755,-0.047,0.01,0.0575,0.018,-0.0525,0.034,-0.406,-0.3085,-0.307,-0.285,-0.243,-0.04
0.756,-0.055,0.007,0.0625,0.0235,-0.059,0.035,-0.4065,-0.311,-0.31,-0.2895,-0.255,-0.0495
0.757,-0.059,0.0105,0.0695,0.024,-0.0645,0.0405,-0.413,-0.3175,-0.3175,-0.297,-0.2615,-0.043
0.758,-0.058,0.0215,0.0795,0.018,-0.0685,0.0505,-0.414,-0.3245,-0.327,-0.3055,-0.2625,-0.0485
0.759,-0.063,0.015,0.078,0.0235,-0.0705,0.047,-0.4115,-0.3255,-0.327,-0.3055,-0.2595,-0.0575
0.76,-0.067,0.0055,0.0725,0.031,-0.07,0.039,-0.409,-0.327,-0.33,-0.3075,-0.2675,-0.06
0.761,-0.07,0.0025,0.0725,0.0335,-0.071,0.0375,-0.4045,-0.3285,-0.335,-0.3115,-0.272,-0.06
0.762,-0.0575,0.012,0.0695,0.0225,-0.0635,0.041,-0.4105,-0.3325,-0.3385,-0.3165,-0.2745,-0.0645
0.763,-0.0685,0.02,0.089,0.024,-0.0785,0.0545,-0.413,-0.338,-0.345,-0.323,-0.2815,-0.069
0.764,-0.085,0.008,0.093,0.0385,-0.089,0.0505,-0.4065,-0.3355,-0.3425,-0.32,-0.277,-0.082
0.765,-0.074,-0.006,0.068,0.0395,-0.071,0.0315,-0.406,-0.336,-0.3455,-0.324,-0.289,-0.089
0.766,-0.075,-0.0155,0.0595,0.045,-0.067,0.0225,-0.401,-0.3345,-0.343,-0.323,-0.285,-0.0575
0.767,-0.076,-0.017,0.0595,0.046,-0.0675,0.0215,-0.3975,-0.332,-0.341,-0.32,-0.2825,-0.058
0.768,-0.082,-0.0055,0.0765,0.0435,-0.0795,0.036,-0.4015,-0.339,-0.35,-0.3285,-0.2945,-0.072
0.769,-0.0825,-0.0065,0.076,0.044,-0.079,0.035,-0.406,-0.3445,-0.3545,-0.3345,-0.297,-0.0755
0.77,-0.076,-0.014,0.0625,0.0445,-0.069,0.0245,-0.405,-0.3455,-0.36,-0.3395,-0.3045,-0.085
0.771,-0.081,-0.0145,0.0665,0.0475,-0.0735,0.0265,-0.4055,-0.3495,-0.3645,-0.3445,-0.309,-0.087
0.772,-0.0825,-0.019,0.0635,0.05,-0.073,0.0225,-0.405,-0.3525,-0.369,-0.3485,-0.3095,-0.0875
0.773,-0.0895,-0.0215,0.0685,0.055,-0.079,0.024,-0.399,-0.3515,-0.37,-0.3485,-0.3125,-0.092
0.774,-0.0875,-0.021,0.0665,0.054,-0.077,0.023,-0.4015,-0.353,-0.371,-0.3475,-0.309,-0.0835
0.775,-0.0845,-0.0235,0.0615,0.0535,-0.073,0.019,-0.3975,-0.349,-0.3705,-0.3465,-0.3085,-0.0805
0.776,-0.089,-0.0325,0.057,0.0605,-0.073,0.0125,-0.397,-0.3505,-0.3695,-0.349,-0.315,-0.0875
0.777,-0.092,-0.0365,0.0555,0.064,-0.0735,0.0095,-0.401,-0.3565,-0.3745,-0.353,-0.3135,-0.0855
0.778,-0.0935,-0.0285,0.0645,0.0605,-0.079,0.0185,-0.398,-0.357,-0.3765,-0.355,-0.314,-0.09
0.779,-0.0915,-0.021,0.0705,0.056,-0.081,0.025,-0.3995,-0.361,-0.3825,-0.361,-0.3175,-0.0915
0.78,-0.098,-0.018,0.08,0.0575,-0.089,0.0315,-0.4025,-0.3645,-0.3875,-0.365,-0.322,-0.0955
0.781,-0.0895,-0.0115,0.0785,0.05,-0.084,0.034,-0.4025,-0.3665,-0.388,-0.3675,-0.326,-0.0945
0.782,-0.0855,-0.005,0.0805,0.045,-0.083,0.038,-0.4015,-0.367,-0.3885,-0.3665,-0.323,-0.1015
0.783,-0.0925,-0.0145,0.078,0.053,-0.0855,0.032,-0.403,-0.371,-0.3915,-0.37,-0.3315,-0.106
0.784,-0.0985,-0.0325,0.0655,0.065,-0.082,0.017,-0.404,-0.371,-0.3915,-0.371,-0.332,-0.095
0.785,-0.109,-0.042,0.0675,0.0755,-0.088,0.013,-0.403,-0.3705,-0.3925,-0.3685,-0.322,-0.0985
0.786,-0.104,-0.0435,0.061,0.0735,-0.0825,0.009,-0.4045,-0.371,-0.395,-0.371,-0.3285,-0.102
0.787,-0.1025,-0.0455,0.057,0.0735,-0.0795,0.006,-0.4045,-0.3695,-0.3945,-0.371,-0.334,-0.1055
0.788,-0.1025,-0.043,0.0595,0.0725,-0.081,0.0085,-0.3995,-0.3675,-0.3945,-0.371,-0.33,-0.106
0.789,-0.103,-0.039,0.064,0.0705,-0.0835,0.013,-0.4015,-0.369,-0.396,-0.374,-0.3325,-0.1055
0.79,-0.1195,-0.0385,0.081,0.0785,-0.1,0.0215,-0.406,-0.3765,-0.404,-0.381,-0.341,-0.112
0.791,-0.125,-0.0505,0.0745,0.087,-0.1,0.0125,-0.4115,-0.3825,-0.4095,-0.3885,-0.3445,-0.112
0.792,-0.1245,-0.061,0.063,0.0925,-0.094,0.0015,-0.411,-0.3815,-0.408,-0.386,-0.3475,-0.117
0.793,-0.117,-0.054,0.063,0.085,-0.09,0.005,-0.416,-0.387,-0.416,-0.3915,-0.3495,-0.1205
0.794,-0.1155,-0.047,0.0685,0.081,-0.092,0.011,-0.4195,-0.3905,-0.42,-0.393,-0.344,-0.107
0.795,-0.128,-0.0505,0.0775,0.089,-0.1025,0.014,-0.423,-0.386,-0.414,-0.3845,-0.348,-0.1105
0.796,-0.125,-0.052,0.074,0.0885,-0.0995,0.0115,-0.4315,-0.389,-0.417,-0.395,-0.353,-0.121
0.797,-0.1275,-0.0455,0.082,0.086,-0.105,0.0185,-0.416,-0.382,-0.4125,-0.392,-0.347,-0.118
0.798,-0.1235,-0.0425,0.081,0.083,-0.1025,0.0195,-0.4195,-0.385,-0.414,-0.3915,-0.353,-0.1225
0.799,-0.122,-0.0435,0.0785,0.0825,-0.1005,0.018,-0.416,-0.385,-0.416,-0.394,-0.3545,-0.121
0.8,-0.132,-0.0535,0.0785,0.0925,-0.1055,0.013,-0.407,-0.375,-0.4095,-0.386,-0.3465,-0.116
0.801,-0.126,-0.057,0.069,0.091,-0.0975,0.0065,-0.408,-0.379,-0.412,-0.3875,-0.3465,-0.1145
0.802,-0.1205,-0.053,0.0675,0.0865,-0.094,0.0075,-0.405,-0.3825,-0.4135,-0.3925,-0.3525,-0.1175
0.803,-0.119,-0.055,0.064,0.087,-0.0915,0.0045,-0.406,-0.382,-0.4125,-0.393,-0.3535,-0.1205
0.804,-0.12,-0.0545,0.0655,0.087,-0.0925,0.006,-0.404,-0.3805,-0.412,-0.393,-0.352,-0.12
0.805,-0.123,-0.058,0.065,0.0905,-0.094,0.0035,-0.4065,-0.384,-0.414,-0.395,-0.3585,-0.1235
0.806,-0.1185,-0.063,0.055,0.0905,-0.087,-0.004,-0.4005,-0.38,-0.4105,-0.391,-0.355,-0.119
0.807,-0.12,-0.069,0.051,0.094,-0.0855,-0.009,-0.399,-0.374,-0.4075,-0.3875,-0.3495,-0.1125
0.808,-0.126,-0.066,0.0595,0.096,-0.093,-0.003,-0.4035,-0.379,-0.4105,-0.3905,-0.357,-0.1125
0.809,-0.125,-0.064,0.061,0.094,-0.093,-0.0015,-0.4005,-0.379,-0.41,-0.3895,-0.3555,-0.114
0.81,-0.1285,-0.07,0.0585,0.099,-0.094,-0.0055,-0.3965,-0.376,-0.4095,-0.3885,-0.354,-0.115
0.811,-0.1255,-0.057,0.0685,0.091,-0.097,0.006,-0.3985,-0.383,-0.418,-0.396,-0.3605,-0.119
0.812,-0.1185,-0.0325,0.086,0.075,-0.102,0.027,-0.404,-0.389,-0.425,-0.4035,-0.362,-0.122
0.813,-0.113,-0.0265,0.086,0.0695,-0.0995,0.03,-0.4015,-0.3875,-0.423,-0.404,-0.3625,-0.121
0.814,-0.1075,-0.037,0.0705,0.072,-0.089,0.017,-0.401,-0.386,-0.42,-0.403,-0.3615,-0.122
0.815,-0.124,-0.052,0.072,0.0875,-0.098,0.0105,-0.41,-0.386,-0.42,-0.403,-0.364,-0.123
0.816,-0.1375,-0.059,0.078,0.0985,-0.108,0.0095,-0.4195,-0.3915,-0.4215,-0.4055,-0.364,-0.1205
0.817,-0.1325,-0.069,0.0635,0.1005,-0.098,-0.0025,-0.4195,-0.3905,-0.4205,-0.4055,-0.365,-0.119
0.818,-0.127,-0.0935,0.0335,0.1095,-0.0805,-0.0295,-0.4165,-0.3815,-0.4145,-0.4,-0.3635,-0.124
0.819,-0.1315,-0.0855,0.0465,0.108,-0.089,-0.019,-0.422,-0.389,-0.4195,-0.405,-0.37,-0.137
0.82,-0.1365,-0.0675,0.069,0.1015,-0.1025,0.001,-0.43,-0.3995,-0.4285,-0.4135,-0.373,-0.138
0.821,-0.1305,-0.069,0.0615,0.0995,-0.0965,-0.0035,-0.4245,-0.392,-0.422,-0.4075,-0.3735,-0.137
0.822,-0.13,-0.0735,0.057,0.1015,-0.0935,-0.008,-0.4155,-0.3825,-0.416,-0.403,-0.379,-0.1315
0.823,-0.1355,-0.0805,0.055,0.107,-0.095,-0.0125,-0.415,-0.3835,-0.4175,-0.4025,-0.366,-0.126
0.824,-0.137,-0.079,0.0575,0.107,-0.097,-0.0105,-0.414,-0.382,-0.416,-0.4,-0.3655,-0.1305
0.825,-0.1285,-0.0795,0.049,0.104,-0.089,-0.015,-0.4075,-0.376,-0.4115,-0.398,-0.3725,-0.134
0.826,-0.1285,-0.081,0.048,0.104,-0.088,-0.016,-0.4055,-0.375,-0.4125,-0.3995,-0.3715,-0.135
0.827,-0.128,-0.0855,0.043,0.1065,-0.0855,-0.021,-0.405,-0.3715,-0.4115,-0.3955,-0.3695,-0.132
0.828,-0.125,-0.0865,0.039,0.1055,-0.082,-0.0235,-0.4,-0.3655,-0.4045,-0.3885,-0.3625,-0.128
0.829,-0.124,-0.0785,0.0455,0.101,-0.0845,-0.0165,-0.3995,-0.365,-0.402,-0.388,-0.3615,-0.126
0.83,-0.122,-0.086,0.036,0.1035,-0.0785,-0.025,-0.3995,-0.369,-0.4045,-0.39,-0.365,-0.1275
0.831,-0.126,-0.093,0.0335,0.109,-0.08,-0.0295,-0.398,-0.371,-0.407,-0.394,-0.3675,-0.131
0.832,-0.127,-0.078,0.049,0.102,-0.088,-0.0145,-0.3985,-0.37,-0.4075,-0.394,-0.376,-0.1425
0.833,-0.1265,-0.0675,0.059,0.097,-0.0925,-0.004,-0.402,-0.3715,-0.4095,-0.399,-0.3795,-0.143
0.834,-0.132,-0.0785,0.0535,0.1045,-0.0925,-0.012,-0.401,-0.371,-0.407,-0.4005,-0.375,-0.138
0.835,-0.133,-0.085,0.0475,0.108,-0.0905,-0.0185,-0.3985,-0.3715,-0.409,-0.4,-0.372,-0.1365
0.836,-0.1275,-0.08,0.0475,0.1035,-0.0875,-0.016,-0.3965,-0.3685,-0.4085,-0.401,-0.37,-0.135
0.837,-0.1205,-0.07,0.051,0.095,-0.086,-0.009,-0.394,-0.365,-0.403,-0.3965,-0.37,-0.132
0.838,-0.122,-0.0765,0.046,0.099,-0.084,-0.015,-0.393,-0.365,-0.4025,-0.394,-0.368,-0.1295
0.839,-0.13,-0.0815,0.0485,0.1055,-0.0895,-0.016,-0.3875,-0.3595,-0.397,-0.388,-0.3615,-0.1255
0.84,-0.127,-0.076,0.051,0.1015,-0.0895,-0.012,-0.3855,-0.357,-0.3955,-0.3865,-0.3575,-0.121
0.841,-0.1345,-0.085,0.049,0.109,-0.0915,-0.0175,-0.3865,-0.358,-0.396,-0.386,-0.36,-0.125
0.842,-0.1375,-0.089,0.048,0.1125,-0.0925,-0.0205,-0.3855,-0.3575,-0.3945,-0.384,-0.356,-0.1215
0.843,-0.1265,-0.082,0.0445,0.104,-0.0855,-0.0185,-0.3915,-0.36,-0.395,-0.385,-0.354,-0.1195
0.844,-0.138,-0.0845,0.0535,0.1105,-0.0955,-0.015,-0.3905,-0.3565,-0.3895,-0.3795,-0.3535,-0.121
0.845,-0.1475,-0.086,0.062,0.116,-0.105,-0.012,-0.383,-0.355,-0.3925,-0.383,-0.362,-0.1275
0.846,-0.133,-0.078,0.055,0.105,-0.094,-0.0115,-0.386,-0.3595,-0.398,-0.392,-0.3695,-0.135
0.847,-0.116,-0.071,0.045,0.0935,-0.0805,-0.013,-0.3885,-0.3585,-0.395,-0.389,-0.3685,-0.135
0.848,-0.114,-0.0625,0.051,0.088,-0.0825,-0.0055,-0.3865,-0.3545,-0.391,-0.3835,-0.37,-0.132
0.849,-0.119,-0.066,0.0525,0.0925,-0.086,-0.0065,-0.39,-0.3565,-0.3935,-0.384,-0.3605,-0.1235
0.85,-0.123,-0.0685,0.0545,0.0955,-0.089,-0.007,-0.387,-0.356,-0.3945,-0.3825,-0.3605,-0.123
0.851,-0.1225,-0.0645,0.0575,0.093,-0.09,-0.0035,-0.378,-0.3485,-0.3885,-0.3775,-0.3615,-0.1225
0.852,-0.1155,-0.0655,0.0495,0.0905,-0.0825,-0.008,-0.376,-0.348,-0.386,-0.3765,-0.356,-0.1185
0.853,-0.112,-0.0715,0.0405,0.0915,-0.0765,-0.0155,-0.3785,-0.3475,-0.386,-0.3735,-0.359,-0.122
0.854,-0.104,-0.0725,0.0315,0.088,-0.068,-0.02,-0.38,-0.352,-0.394,-0.3805,-0.3505,-0.1155
0.855,-0.1075,-0.064,0.0435,0.0855,-0.0755,-0.0105,-0.3765,-0.347,-0.3865,-0.3775,-0.355,-0.1165
0.856,-0.115,-0.051,0.064,0.083,-0.0895,0.0065,-0.3775,-0.3405,-0.3775,-0.37,-0.368,-0.129
0.857,-0.1155,-0.0375,0.0775,0.0765,-0.0965,0.02,-0.3805,-0.349,-0.389,-0.379,-0.3675,-0.126
0.858,-0.1165,-0.041,0.0755,0.0785,-0.096,0.0175,-0.3775,-0.3515,-0.3905,-0.381,-0.3735,-0.137
0.859,-0.1095,-0.038,0.0715,0.0735,-0.0905,0.017,-0.3725,-0.3485,-0.388,-0.382,-0.382,-0.136
0.86,-0.1115,-0.036,0.0755,0.074,-0.0935,0.02,-0.37,-0.346,-0.388,-0.3835,-0.3775,-0.1145
0.861,-0.1125,-0.0435,0.0685,0.0775,-0.0905,0.013,-0.372,-0.3445,-0.384,-0.3755,-0.3525,-0.119
0.862,-0.1145,-0.0455,0.069,0.0795,-0.0915,0.012,-0.378,-0.3505,-0.386,-0.3765,-0.3545,-0.1275
0.863,-0.1195,-0.052,0.0675,0.0855,-0.0935,0.008,-0.3865,-0.353,-0.387,-0.3755,-0.366,-0.126
0.864,-0.12,-0.052,0.068,0.0855,-0.094,0.008,-0.3935,-0.355,-0.3865,-0.373,-0.3605,-0.1255
0.865,-0.1295,-0.037,0.093,0.083,-0.111,0.028,-0.3945,-0.359,-0.39,-0.3785,-0.365,-0.13
0.866,-0.119,-0.036,0.083,0.0775,-0.101,0.024,-0.3935,-0.358,-0.3915,-0.379,-0.368,-0.1285
0.867,-0.116,-0.0505,0.0655,0.083,-0.091,0.008,-0.3845,-0.3525,-0.3865,-0.373,-0.3625,-0.1255
0.868,-0.116,-0.062,0.054,0.089,-0.085,-0.004,-0.3775,-0.3445,-0.3775,-0.366,-0.3525,-0.1165
0.869,-0.106,-0.0695,0.037,0.0875,-0.0715,-0.016,-0.377,-0.3435,-0.376,-0.367,-0.3505,-0.1175
0.87,-0.1155,-0.067,0.049,0.091,-0.0825,-0.009,-0.3755,-0.346,-0.3775,-0.3685,-0.3515,-0.1255
0.871,-0.1215,-0.056,0.0655,0.0885,-0.0935,0.005,-0.377,-0.3455,-0.3765,-0.3655,-0.352,-0.1135
0.872,-0.122,-0.0445,0.078,0.0835,-0.1,0.017,-0.3775,-0.3465,-0.3745,-0.3645,-0.354,-0.11
0.873,-0.1195,-0.0355,0.0835,0.077,-0.101,0.024,-0.3805,-0.3485,-0.3755,-0.366,-0.3525,-0.1135
0.874,-0.1135,-0.033,0.0805,0.073,-0.097,0.024,-0.382,-0.3515,-0.379,-0.3655,-0.3485,-0.113
0.875,-0.107,-0.031,0.076,0.069,-0.0915,0.0225,-0.38,-0.3485,-0.3765,-0.3645,-0.347,-0.11
0.876,-0.11,-0.0315,0.0785,0.0705,-0.094,0.0235,-0.3745,-0.3425,-0.3725,-0.3595,-0.343,-0.107
0.877,-0.1075,-0.0405,0.067,0.074,-0.0875,0.0135,-0.368,-0.3395,-0.3705,-0.356,-0.338,-0.104
0.878,-0.102,-0.034,0.068,0.0675,-0.085,0.0175,-0.3705,-0.3355,-0.3635,-0.3505,-0.3325,-0.097
0.879,-0.1055,-0.03,0.0755,0.0675,-0.091,0.023,-0.375,-0.343,-0.369,-0.3535,-0.335,-0.1005
0.88,-0.113,-0.039,0.074,0.0755,-0.0935,0.0175,-0.377,-0.347,-0.3725,-0.359,-0.34,-0.099
0.881,-0.119,-0.0405,0.078,0.0795,-0.0985,0.019,-0.376,-0.34,-0.365,-0.3525,-0.333,-0.0965
0.882,-0.115,-0.04,0.075,0.0775,-0.095,0.018,-0.379,-0.345,-0.3705,-0.356,-0.33,-0.0975
0.883,-0.1115,-0.0435,0.0685,0.077,-0.09,0.013,-0.3825,-0.3475,-0.373,-0.356,-0.33,-0.094
0.884,-0.1035,-0.0425,0.061,0.073,-0.0825,0.0095,-0.38,-0.3475,-0.371,-0.353,-0.3285,-0.091
0.885,-0.108,-0.0405,0.067,0.074,-0.0875,0.0135,-0.378,-0.348,-0.37,-0.3535,-0.3305,-0.0925
0.886,-0.1125,-0.0395,0.0725,0.076,-0.0925,0.0165,-0.38,-0.3465,-0.3705,-0.3535,-0.3285,-0.094
0.887,-0.1115,-0.028,0.083,0.0695,-0.0975,0.028,-0.381,-0.3495,-0.372,-0.3535,-0.3265,-0.0935
0.888,-0.1145,-0.0265,0.088,0.07,-0.1015,0.031,-0.3805,-0.35,-0.3725,-0.3505,-0.3295,-0.0965
0.889,-0.111,-0.032,0.0795,0.071,-0.095,0.024,-0.374,-0.3465,-0.37,-0.348,-0.323,-0.089
0.89,-0.111,-0.037,0.074,0.074,-0.0925,0.0185,-0.376,-0.346,-0.368,-0.346,-0.318,-0.0855
0.891,-0.111,-0.0365,0.0745,0.0735,-0.0925,0.0195,-0.376,-0.344,-0.365,-0.344,-0.3175,-0.0855
0.892,-0.1135,-0.0405,0.0725,0.077,-0.093,0.0165,-0.386,-0.3505,-0.3705,-0.3505,-0.3205,-0.0885
0.893,-0.108,-0.0425,0.066,0.075,-0.087,0.012,-0.4015,-0.361,-0.3775,-0.3555,-0.323,-0.0925
0.894,-0.098,-0.02,0.0785,0.0585,-0.088,0.0295,-0.389,-0.351,-0.367,-0.3485,-0.3205,-0.089
0.895,-0.106,-0.011,0.0955,0.058,-0.1005,0.0425,-0.384,-0.3495,-0.367,-0.347,-0.317,-0.087
0.896,-0.106,-0.014,0.092,0.06,-0.099,0.0395,-0.388,-0.3565,-0.373,-0.3515,-0.3185,-0.087
0.897,-0.108,-0.014,0.094,0.061,-0.101,0.04,-0.389,-0.362,-0.3765,-0.3555,-0.316,-0.088
0.898,-0.114,-0.024,0.09,0.069,-0.102,0.033,-0.3865,-0.358,-0.3715,-0.3475,-0.3075,-0.096
0.899,-0.1155,-0.031,0.084,0.073,-0.0995,0.0265,-0.381,-0.352,-0.366,-0.341,-0.3095,-0.088
0.9,-0.115,-0.025,0.09,0.07,-0.1025,0.0325,-0.381,-0.3535,-0.368,-0.343,-0.305,-0.068
0.901,-0.107,-0.0305,0.0765,0.0685,-0.092,0.0235,-0.379,-0.356,-0.371,-0.346,-0.305,-0.0735
0.902,-0.108,-0.0425,0.066,0.075,-0.087,0.012,-0.3785,-0.354,-0.3675,-0.3395,-0.302,-0.08
0.903,-0.117,-0.0485,0.069,0.0825,-0.093,0.0105,-0.3795,-0.351,-0.3635,-0.3355,-0.302,-0.0765
0.904,-0.113,-0.044,0.069,0.078,-0.091,0.013,-0.3775,-0.352,-0.367,-0.3415,-0.3045,-0.0785
0.905,-0.108,-0.0385,0.069,0.073,-0.0885,0.0155,-0.3825,-0.351,-0.3655,-0.3395,-0.31,-0.0795
0.906,-0.122,-0.0475,0.0745,0.0845,-0.098,0.0135,-0.3815,-0.356,-0.37,-0.3405,-0.31,-0.0765
0.907,-0.1185,-0.041,0.0775,0.0795,-0.098,0.0185,-0.3805,-0.3585,-0.3715,-0.3425,-0.305,-0.079
0.908,-0.1085,-0.0285,0.08,0.0685,-0.0945,0.026,-0.3995,-0.3645,-0.3755,-0.3495,-0.3085,-0.071
0.909,-0.1085,-0.021,0.0875,0.0645,-0.098,0.0335,-0.4005,-0.3725,-0.3835,-0.3555,-0.302,-0.0665
0.91,-0.109,-0.0195,0.0895,0.064,-0.0995,0.0355,-0.3895,-0.3655,-0.3805,-0.3515,-0.3085,-0.0705
0.911,-0.113,-0.0235,0.0895,0.0675,-0.101,0.0335,-0.3865,-0.359,-0.3735,-0.3455,-0.3095,-0.0745
0.912,-0.1115,-0.025,0.0865,0.068,-0.099,0.031,-0.381,-0.3555,-0.37,-0.342,-0.302,-0.0765
0.913,-0.108,-0.0285,0.0795,0.068,-0.094,0.026,-0.381,-0.3555,-0.3715,-0.344,-0.3005,-0.071
0.914,-0.102,-0.0355,0.066,0.0685,-0.0845,0.0155,-0.3805,-0.357,-0.373,-0.346,-0.3025,-0.074
0.915,-0.1175,-0.0435,0.074,0.08,-0.096,0.0155,-0.377,-0.3555,-0.37,-0.343,-0.3045,-0.0725
0.916,-0.121,-0.033,0.0875,0.077,-0.104,0.0275,-0.3785,-0.357,-0.3725,-0.345,-0.2965,-0.0655
0.917,-0.1035,-0.025,0.0785,0.064,-0.091,0.027,-0.3835,-0.36,-0.3755,-0.345,-0.296,-0.07
0.918,-0.111,-0.032,0.079,0.071,-0.095,0.0235,-0.381,-0.36,-0.374,-0.338,-0.2965,-0.0725
0.919,-0.1105,-0.0315,0.079,0.0705,-0.0945,0.024,-0.3765,-0.354,-0.369,-0.34,-0.2885,-0.0645
0.92,-0.104,-0.031,0.073,0.067,-0.0885,0.021,-0.378,-0.3555,-0.369,-0.3435,-0.2875,-0.0615
0.921,-0.107,-0.0315,0.075,0.069,-0.091,0.022,-0.379,-0.3565,-0.372,-0.341,-0.2935,-0.0655
0.922,-0.1115,-0.0325,0.0795,0.072,-0.0955,0.0235,-0.381,-0.3595,-0.377,-0.344,-0.2965,-0.069
0.923,-0.1095,-0.0345,0.0755,0.072,-0.0925,0.0205,-0.386,-0.368,-0.3865,-0.3535,-0.2945,-0.068
0.924,-0.103,-0.016,0.087,0.0595,-0.095,0.036,-0.387,-0.365,-0.379,-0.3475,-0.2995,-0.072
0.925,-0.106,-0.016,0.09,0.061,-0.098,0.0375,-0.3835,-0.3575,-0.3685,-0.3375,-0.3005,-0.073
0.926,-0.1075,-0.044,0.0635,0.0755,-0.0855,0.01,-0.3825,-0.36,-0.3755,-0.344,-0.297,-0.0685
0.927,-0.1055,-0.0445,0.061,0.0745,-0.0835,0.0085,-0.382,-0.3595,-0.3765,-0.347,-0.297,-0.069
0.928,-0.11,-0.0355,0.0745,0.073,-0.0925,0.0195,-0.383,-0.3585,-0.377,-0.346,-0.2975,-0.0715
0.929,-0.111,-0.038,0.073,0.0745,-0.092,0.0175,-0.3855,-0.3655,-0.3825,-0.3515,-0.3035,-0.0765
0.93,-0.1015,-0.0435,0.058,0.072,-0.08,0.0075,-0.3815,-0.363,-0.3785,-0.348,-0.2955,-0.0665
0.931,-0.1025,-0.055,0.0475,0.0785,-0.075,-0.0035,-0.3765,-0.357,-0.376,-0.344,-0.288,-0.0575
0.932,-0.11,-0.0545,0.0555,0.082,-0.0825,0.0005,-0.376,-0.352,-0.3695,-0.3415,-0.294,-0.0635
0.933,-0.111,-0.0515,0.06,0.081,-0.0855,0.0045,-0.3835,-0.361,-0.379,-0.3495,-0.2985,-0.0665
0.934,-0.111,-0.043,0.068,0.0765,-0.0895,0.013,-0.388,-0.3695,-0.3885,-0.356,-0.302,-0.072
0.935,-0.108,-0.023,0.0855,0.0655,-0.0965,0.0315,-0.388,-0.368,-0.3835,-0.354,-0.3045,-0.0775
0.936,-0.104,-0.014,0.09,0.0585,-0.097,0.0385,-0.3935,-0.3755,-0.391,-0.365,-0.308,-0.0815
0.937,-0.1015,-0.018,0.084,0.059,-0.093,0.0335,-0.3985,-0.378,-0.3945,-0.369,-0.314,-0.085
0.938,-0.1045,-0.0275,0.0775,0.066,-0.091,0.0255,-0.396,-0.3755,-0.3905,-0.3625,-0.3115,-0.081
0.939,-0.105,-0.03,0.075,0.0675,-0.09,0.0225,-0.3945,-0.377,-0.3895,-0.3605,-0.3085,-0.079
0.94,-0.098,-0.022,0.0755,0.06,-0.087,0.027,-0.395,-0.3755,-0.3905,-0.3615,-0.311,-0.0805
0.941,-0.107,-0.023,0.084,0.065,-0.0955,0.0305,-0.39,-0.375,-0.391,-0.361,-0.313,-0.079
0.942,-0.1015,-0.0285,0.073,0.0645,-0.0875,0.0225,-0.3925,-0.379,-0.3935,-0.364,-0.31,-0.076
0.943,-0.0975,-0.025,0.0725,0.061,-0.085,0.024,-0.3935,-0.376,-0.3925,-0.3635,-0.3115,-0.074
0.944,-0.1045,-0.024,0.0805,0.064,-0.0925,0.0285,-0.391,-0.3725,-0.3895,-0.36,-0.3145,-0.076
0.945,-0.1085,-0.035,0.0735,0.0715,-0.091,0.0195,-0.39,-0.3725,-0.3885,-0.3595,-0.31,-0.0755
0.946,-0.112,-0.042,0.07,0.0765,-0.091,0.0145,-0.389,-0.3735,-0.3885,-0.3585,-0.3115,-0.076
0.947,-0.1075,-0.0415,0.066,0.0745,-0.087,0.0125,-0.39,-0.3745,-0.3895,-0.361,-0.3145,-0.08
0.948,-0.108,-0.036,0.072,0.072,-0.09,0.018,-0.3925,-0.3775,-0.3935,-0.365,-0.325,-0.077
0.949,-0.0995,-0.032,0.0675,0.0655,-0.0835,0.018,-0.394,-0.379,-0.3945,-0.3645,-0.317,-0.0785
0.95,-0.099,-0.029,0.0695,0.064,-0.084,0.0205,-0.3935,-0.377,-0.3925,-0.3625,-0.308,-0.0785
0.951,-0.1035,-0.027,0.0765,0.065,-0.09,0.025,-0.394,-0.3785,-0.3945,-0.363,-0.3145,-0.082
0.952,-0.1005,-0.02,0.0805,0.06,-0.0905,0.0305,-0.3935,-0.381,-0.3965,-0.3675,-0.3165,-0.078
0.953,-0.098,-0.012,0.0855,0.0545,-0.0915,0.037,-0.3955,-0.381,-0.3975,-0.37,-0.3145,-0.074
0.954,-0.098,-0.0225,0.0755,0.06,-0.087,0.027,-0.391,-0.376,-0.394,-0.366,-0.3055,-0.0785
0.955,-0.099,-0.04,0.0595,0.0695,-0.0795,0.01,-0.3905,-0.375,-0.3925,-0.3655,-0.3115,-0.0675
0.956,-0.099,-0.049,0.0505,0.074,-0.075,0.001,-0.394,-0.3765,-0.394,-0.367,-0.311,-0.066
0.957,-0.094,-0.0385,0.0555,0.066,-0.0745,0.0085,-0.3905,-0.376,-0.394,-0.3665,-0.308,-0.073
0.958,-0.0895,-0.029,0.0605,0.059,-0.075,0.016,-0.3935,-0.379,-0.396,-0.3705,-0.3155,-0.0785
0.959,-0.0895,-0.027,0.063,0.058,-0.076,0.018,-0.397,-0.382,-0.4005,-0.3735,-0.317,-0.08
0.96,-0.094,-0.025,0.069,0.059,-0.0815,0.022,-0.3985,-0.3835,-0.403,-0.376,-0.3215,-0.08
0.961,-0.0905,-0.012,0.0785,0.051,-0.0845,0.0335,-0.395,-0.384,-0.402,-0.376,-0.3195,-0.0785
0.962,-0.09,-0.009,0.081,0.0495,-0.0855,0.036,-0.395,-0.384,-0.4025,-0.3775,-0.3205,-0.079
0.963,-0.0965,-0.0195,0.077,0.0575,-0.0865,0.029,-0.3995,-0.3825,-0.4005,-0.375,-0.3215,-0.085
0.964,-0.098,-0.0195,0.078,0.0585,-0.088,0.0295,-0.395,-0.38,-0.399,-0.3705,-0.3175,-0.0855
0.965,-0.101,-0.0235,0.077,0.062,-0.089,0.027,-0.3945,-0.383,-0.4025,-0.375,-0.3195,-0.086
0.966,-0.1005,-0.0305,0.07,0.0655,-0.0855,0.02,-0.392,-0.3835,-0.4035,-0.377,-0.3235,-0.0905
0.967,-0.1095,-0.0445,0.0645,0.0765,-0.087,0.0105,-0.385,-0.3805,-0.4025,-0.375,-0.3245,-0.0875
0.968,-0.113,-0.0495,0.0635,0.0805,-0.0885,0.0075,-0.385,-0.379,-0.4,-0.374,-0.3215,-0.08
0.969,-0.106,-0.041,0.0645,0.073,-0.0855,0.012,-0.385,-0.378,-0.4005,-0.374,-0.321,-0.0815
0.97,-0.101,-0.0385,0.0625,0.0695,-0.082,0.0125,-0.3855,-0.379,-0.4025,-0.3745,-0.3205,-0.082
0.971,-0.1005,-0.0435,0.0575,0.0715,-0.079,0.007,-0.385,-0.38,-0.4005,-0.375,-0.3185,-0.0795
0.972,-0.1045,-0.0455,0.059,0.075,-0.082,0.007,-0.3835,-0.379,-0.398,-0.3735,-0.3175,-0.0775
0.973,-0.105,-0.042,0.063,0.0735,-0.084,0.0105,-0.3845,-0.379,-0.3995,-0.3735,-0.3195,-0.079
0.974,-0.0935,-0.0405,0.0535,0.067,-0.0735,0.0065,-0.3855,-0.3785,-0.399,-0.3735,-0.3185,-0.0775
0.975,-0.0905,-0.034,0.0565,0.062,-0.0735,0.0115,-0.388,-0.3795,-0.4005,-0.3735,-0.323,-0.088
0.976,-0.103,-0.027,0.0755,0.0645,-0.089,0.0245,-0.3855,-0.3805,-0.405,-0.3775,-0.336,-0.097
0.977,-0.1015,-0.022,0.0795,0.0615,-0.0905,0.029,-0.388,-0.3795,-0.402,-0.378,-0.3305,-0.08
0.978,-0.0945,-0.029,0.0655,0.0615,-0.08,0.0185,-0.396,-0.3865,-0.407,-0.3805,-0.322,-0.086
0.979,-0.0845,-0.0405,0.044,0.0625,-0.064,0.002,-0.3935,-0.3865,-0.4085,-0.379,-0.3205,-0.0855
0.98,-0.0845,-0.038,0.0465,0.061,-0.0655,0.0045,-0.3895,-0.3775,-0.4,-0.371,-0.3195,-0.0735
0.981,-0.1,-0.0365,0.0635,0.068,-0.0815,0.0135,-0.39,-0.381,-0.4045,-0.3765,-0.324,-0.0815
0.982,-0.094,-0.0305,0.063,0.062,-0.0785,0.0165,-0.394,-0.385,-0.4085,-0.379,-0.3225,-0.0805
0.983,-0.087,-0.0355,0.0515,0.061,-0.069,0.008,-0.398,-0.3865,-0.4085,-0.3775,-0.3215,-0.083
0.984,-0.098,-0.045,0.053,0.071,-0.0755,0.0045,-0.396,-0.386,-0.408,-0.38,-0.322,-0.0845
0.985,-0.094,-0.0365,0.058,0.065,-0.076,0.011,-0.3955,-0.386,-0.4085,-0.378,-0.324,-0.085
0.986,-0.0895,-0.044,0.0455,0.0665,-0.0675,0.001,-0.395,-0.385,-0.4075,-0.378,-0.3245,-0.0815
0.987,-0.0945,-0.046,0.0485,0.0695,-0.0715,0.0015,-0.392,-0.384,-0.406,-0.3765,-0.321,-0.0805
0.988,-0.096,-0.038,0.058,0.0665,-0.077,0.0105,-0.3965,-0.3895,-0.412,-0.382,-0.3275,-0.087
0.989,-0.099,-0.0405,0.0585,0.0695,-0.0785,0.0095,-0.3955,-0.3875,-0.411,-0.3825,-0.3265,-0.087
0.99,-0.0995,-0.033,0.0665,0.066,-0.083,0.017,-0.3965,-0.389,-0.4115,-0.385,-0.3355,-0.097
0.991,-0.1,-0.0325,0.0675,0.066,-0.084,0.0175,-0.399,-0.3925,-0.416,-0.389,-0.344,-0.0925
0.992,-0.0935,-0.0365,0.0565,0.0645,-0.075,0.0105,-0.3975,-0.3905,-0.4135,-0.385,-0.326,-0.084
0.993,-0.093,-0.0365,0.0565,0.0645,-0.075,0.01,-0.3955,-0.389,-0.413,-0.3835,-0.324,-0.089
0.994,-0.096,-0.0475,0.0485,0.0715,-0.072,0.001,-0.392,-0.388,-0.4115,-0.3805,-0.3305,-0.0925
0.995,-0.094,-0.05,0.044,0.0715,-0.069,-0.003,-0.3915,-0.3875,-0.4125,-0.383,-0.328,-0.093
0.996,-0.0975,-0.043,0.0545,0.07,-0.076,0.006,-0.3885,-0.386,-0.412,-0.382,-0.3265,-0.0885
0.997,-0.094,-0.0445,0.0495,0.069,-0.0715,0.003,-0.387,-0.3855,-0.4095,-0.382,-0.328,-0.089
0.998,-0.094,-0.0475,0.0465,0.0705,-0.07,-0.0005,-0.386,-0.386,-0.411,-0.3845,-0.329,-0.0845
0.999,-0.0995,-0.0435,0.056,0.0715,-0.0775,0.0065,-0.3825,-0.3825,-0.4095,-0.3815,-0.3265,-0.0885
1.0,-0.1045,-0.039,0.066,0.0715,-0.0855,0.014,-0.3835,-0.3845,-0.4125,-0.386,-0.332,-0.0995
1.001,-0.1,-0.0375,0.0625,0.0685,-0.0815,0.013,-0.388,-0.3895,-0.4175,-0.391,-0.3375,-0.1
1.002,-0.093,-0.038,0.055,0.0655,-0.074,0.009,-0.385,-0.382,-0.4115,-0.3865,-0.3345,-0.098
1.003,-0.092,-0.0425,0.0495,0.067,-0.071,0.004,-0.382,-0.3785,-0.4085,-0.3845,-0.3345,-0.097
1.004,-0.0985,-0.0385,0.0595,0.068,-0.079,0.011,-0.384,-0.381,-0.4105,-0.386,-0.3355,-0.0965
1.005,-0.1085,-0.036,0.0725,0.072,-0.0905,0.0185,-0.3855,-0.3875,-0.4175,-0.3925,-0.3395,-0.101
1.006,-0.1065,-0.0365,0.0705,0.0715,-0.0885,0.0175,-0.392,-0.391,-0.4195,-0.397,-0.3435,-0.1025
1.007,-0.113,-0.0375,0.075,0.075,-0.094,0.019,-0.4005,-0.396,-0.4245,-0.401,-0.345,-0.1065
1.008,-0.1175,-0.0485,0.069,0.083,-0.0935,0.0105,-0.409,-0.403,-0.4295,-0.405,-0.347,-0.108
1.009,-0.118,-0.055,0.063,0.086,-0.0905,0.004,-0.412,-0.399,-0.425,-0.4015,-0.344,-0.1045
1.01,-0.1175,-0.054,0.0635,0.0855,-0.0905,0.005,-0.4105,-0.4015,-0.4295,-0.4035,-0.3405,-0.104
1.011,-0.114,-0.054,0.0595,0.0835,-0.0865,0.003,-0.4055,-0.402,-0.4315,-0.4035,-0.334,-0.099
1.012,-0.1175,-0.0655,0.052,0.091,-0.0845,-0.0065,-0.3995,-0.3945,-0.424,-0.397,-0.3365,-0.101
1.013,-0.1175,-0.066,0.0515,0.0915,-0.0845,-0.007,-0.399,-0.3935,-0.419,-0.3935,-0.338,-0.099
1.014,-0.117,-0.057,0.06,0.087,-0.0885,0.0015,-0.4025,-0.402,-0.427,-0.4,-0.337,-0.1005
1.015,-0.1105,-0.048,0.0625,0.079,-0.0865,0.0075,-0.403,-0.4,-0.4265,-0.401,-0.3395,-0.103
1.016,-0.113,-0.036,0.0765,0.0745,-0.0945,0.0205,-0.3985,-0.3945,-0.4225,-0.396,-0.332,-0.095
1.017,-0.1235,-0.025,0.0985,0.074,-0.111,0.037,-0.398,-0.3985,-0.424,-0.3965,-0.333,-0.097
1.018,-0.1265,-0.0255,0.101,0.076,-0.114,0.038,-0.3915,-0.391,-0.414,-0.389,-0.3405,-0.094
1.019,-0.126,-0.031,0.095,0.0785,-0.1105,0.032,-0.383,-0.3835,-0.4055,-0.38,-0.3295,-0.086
1.02,-0.1255,-0.032,0.093,0.0785,-0.1095,0.0305,-0.388,-0.3855,-0.4075,-0.379,-0.3245,-0.082
1.021,-0.127,-0.0385,0.0885,0.0825,-0.108,0.0255,-0.387,-0.384,-0.4055,-0.3775,-0.3325,-0.083
1.022,-0.1225,-0.0345,0.088,0.078,-0.1055,0.027,-0.382,-0.3775,-0.395,-0.3685,-0.3305,-0.086
1.023,-0.117,-0.031,0.086,0.0735,-0.1015,0.0275,-0.381,-0.3725,-0.3905,-0.3645,-0.323,-0.0805
1.024,-0.115,-0.0225,0.0925,0.0685,-0.1035,0.0355,-0.3785,-0.3705,-0.3905,-0.3625,-0.322,-0.0765
1.025,-0.1055,-0.0105,0.095,0.0575,-0.1,0.0425,-0.3755,-0.369,-0.3905,-0.3605,-0.322,-0.0755
1.026,-0.0975,-0.008,0.089,0.0525,-0.093,0.041,-0.3845,-0.3775,-0.3965,-0.3655,-0.323,-0.078
1.027,-0.102,-0.0055,0.0965,0.0535,-0.099,0.0455,-0.3895,-0.3775,-0.3955,-0.3635,-0.3225,-0.0795
1.028,-0.1095,-0.0135,0.096,0.0615,-0.103,0.0415,-0.403,-0.382,-0.4005,-0.367,-0.321,-0.0785
1.029,-0.112,-0.008,0.104,0.0595,-0.108,0.0485,-0.4095,-0.389,-0.4055,-0.3725,-0.3215,-0.0785
1.03,-0.094,0.021,0.115,0.0365,-0.1045,0.068,-0.3875,-0.376,-0.3945,-0.362,-0.3145,-0.075
1.031,-0.0835,0.031,0.114,0.026,-0.099,0.0725,-0.382,-0.373,-0.391,-0.355,-0.31,-0.0725
1.032,-0.094,0.0345,0.128,0.0295,-0.111,0.0815,-0.3855,-0.3725,-0.39,-0.359,-0.3105,-0.0715
1.033,-0.0975,0.0325,0.13,0.032,-0.1135,0.0815,-0.3875,-0.3705,-0.3885,-0.3575,-0.3095,-0.0695
1.034,-0.1035,0.007,0.1105,0.048,-0.107,0.059,-0.382,-0.362,-0.3785,-0.345,-0.3005,-0.058
1.035,-0.106,0.003,0.109,0.051,-0.1075,0.0565,-0.382,-0.364,-0.38,-0.3485,-0.2965,-0.056
1.036,-0.092,0.0225,0.114,0.0345,-0.103,0.0685,-0.3955,-0.3735,-0.3905,-0.3605,-0.3045,-0.063
1.037,-0.085,0.025,0.11,0.0295,-0.0975,0.068,-0.399,-0.369,-0.3855,-0.356,-0.299,-0.06
1.038,-0.087,0.014,0.1005,0.036,-0.094,0.0575,-0.393,-0.3635,-0.3825,-0.3525,-0.304,-0.067
1.039,-0.0875,0.012,0.1,0.0375,-0.0935,0.0565,-0.386,-0.359,-0.3775,-0.349,-0.303,-0.0655
1.04,-0.093,0.0115,0.104,0.0405,-0.0985,0.058,-0.383,-0.358,-0.3755,-0.3455,-0.295,-0.072
1.041,-0.0855,0.0095,0.0955,0.0375,-0.0905,0.053,-0.3855,-0.3555,-0.3755,-0.347,-0.304,-0.0695
1.042,-0.0825,0.0165,0.0995,0.0325,-0.091,0.0585,-0.381,-0.3515,-0.37,-0.3425,-0.2965,-0.0485
1.043,-0.0835,0.0185,0.102,0.0325,-0.093,0.0605,-0.378,-0.349,-0.3655,-0.338,-0.293,-0.053
1.044,-0.083,0.0215,0.105,0.0305,-0.094,0.0635,-0.376,-0.348,-0.366,-0.341,-0.297,-0.0565
1.045,-0.0775,0.028,0.1055,0.0245,-0.0915,0.067,-0.3755,-0.35,-0.369,-0.3415,-0.2985,-0.059
1.046,-0.072,0.031,0.1025,0.02,-0.087,0.067,-0.385,-0.3505,-0.367,-0.3365,-0.297,-0.0595
1.047,-0.0775,0.031,0.1085,0.023,-0.093,0.07,-0.383,-0.3505,-0.367,-0.338,-0.295,-0.058
1.048,-0.064,0.035,0.0985,0.0145,-0.0815,0.067,-0.38,-0.3455,-0.362,-0.333,-0.2915,-0.056
1.049,-0.066,0.038,0.104,0.014,-0.085,0.071,-0.3835,-0.35,-0.3605,-0.33,-0.2895,-0.053
1.05,-0.07,0.039,0.109,0.015,-0.0895,0.0745,-0.3825,-0.348,-0.357,-0.3285,-0.2895,-0.0525
1.051,-0.0795,0.05,0.1295,0.0145,-0.1045,0.09,-0.3845,-0.343,-0.353,-0.325,-0.2875,-0.0515
1.052,-0.1025,0.0475,0.15,0.0275,-0.1265,0.099,-0.385,-0.346,-0.3555,-0.3245,-0.2885,-0.048
1.053,-0.091,0.048,0.1395,0.021,-0.1155,0.094,-0.3885,-0.3435,-0.3525,-0.3215,-0.2855,-0.05
1.054,-0.08,0.063,0.143,0.0085,-0.1115,0.103,-0.3935,-0.349,-0.356,-0.3235,-0.281,-0.047
1.055,-0.0715,0.063,0.1345,0.004,-0.103,0.099,-0.3925,-0.3475,-0.3535,-0.323,-0.276,-0.0415
1.056,-0.065,0.0585,0.124,0.003,-0.0945,0.0915,-0.3905,-0.3425,-0.347,-0.3185,-0.272,-0.037
1.057,-0.068,0.051,0.119,0.008,-0.093,0.0855,-0.3895,-0.344,-0.346,-0.3135,-0.2695,-0.032
1.058,-0.073,0.057,0.13,0.0075,-0.1015,0.094,-0.388,-0.3395,-0.3405,-0.308,-0.2665,-0.03
1.059,-0.0675,0.0655,0.133,0.001,-0.1005,0.0995,-0.3895,-0.34,-0.3425,-0.307,-0.266,-0.027
1.06,-0.055,0.0665,0.121,-0.006,-0.0875,0.094,-0.3965,-0.3475,-0.349,-0.3155,-0.275,-0.039
1.061,-0.0525,0.0685,0.1205,-0.008,-0.0865,0.0945,-0.399,-0.351,-0.35,-0.317,-0.279,-0.0345
1.062,-0.0515,0.0605,0.112,-0.0045,-0.082,0.0865,-0.403,-0.355,-0.353,-0.316,-0.2755,-0.0275
1.063,-0.049,0.052,0.101,-0.002,-0.075,0.077,-0.406,-0.3585,-0.354,-0.3165,-0.2725,-0.032
1.064,-0.053,0.038,0.091,0.007,-0.072,0.0645,-0.407,-0.3665,-0.363,-0.3235,-0.274,-0.0285
1.065,-0.07,0.042,0.112,0.014,-0.091,0.077,-0.4165,-0.3865,-0.381,-0.3395,-0.284,-0.0425
1.066,-0.0785,0.059,0.1375,0.0095,-0.108,0.0985,-0.4285,-0.4075,-0.3995,-0.355,-0.3025,-0.056
1.067,-0.075,0.057,0.132,0.0085,-0.1035,0.0945,-0.4265,-0.408,-0.402,-0.3575,-0.303,-0.053
1.068,-0.066,0.0515,0.1175,0.007,-0.092,0.085,-0.4205,-0.398,-0.392,-0.347,-0.284,-0.0465
1.069,-0.061,0.0475,0.1085,0.0065,-0.0845,0.078,-0.4155,-0.3905,-0.3865,-0.3385,-0.2805,-0.0405
1.07,-0.066,0.0465,0.113,0.009,-0.0895,0.08,-0.4085,-0.386,-0.375,-0.3305,-0.276,-0.0355
1.071,-0.0615,0.0445,0.1065,0.0085,-0.084,0.0755,-0.4095,-0.381,-0.3715,-0.3255,-0.267,-0.0305
1.072,-0.0565,0.0395,0.096,0.0085,-0.0765,0.068,-0.418,-0.3775,-0.3735,-0.325,-0.266,-0.0265
1.073,-0.0585,0.0315,0.09,0.0135,-0.074,0.061,-0.4235,-0.3855,-0.3735,-0.3285,-0.2665,-0.029
1.074,-0.057,0.0335,0.0905,0.0115,-0.0735,0.062,-0.42,-0.3845,-0.376,-0.3305,-0.273,-0.0315
1.075,-0.0515,0.0395,0.091,0.0055,-0.071,0.0655,-0.421,-0.386,-0.3785,-0.334,-0.276,-0.033
1.076,-0.0445,0.024,0.0685,0.01,-0.0565,0.0465,-0.419,-0.384,-0.377,-0.3325,-0.2695,-0.0355
1.077,-0.047,0.0155,0.0625,0.0155,-0.055,0.0395,-0.42,-0.385,-0.3805,-0.3355,-0.2725,-0.033
1.078,-0.0465,0.0125,0.059,0.017,-0.0525,0.036,-0.422,-0.3955,-0.3905,-0.3425,-0.275,-0.034
1.079,-0.045,0.0095,0.0545,0.0175,-0.0495,0.0325,-0.421,-0.3905,-0.39,-0.3435,-0.273,-0.0315
1.08,-0.047,0.002,0.049,0.022,-0.048,0.0255,-0.423,-0.3915,-0.3915,-0.347,-0.2775,-0.0345
1.081,-0.038,-0.0065,0.0315,0.022,-0.0345,0.0125,-0.422,-0.3935,-0.395,-0.3525,-0.2835,-0.046
1.082,-0.034,-0.006,0.028,0.02,-0.031,0.011,-0.423,-0.3935,-0.395,-0.356,-0.284,-0.0435
1.083,-0.037,-0.0075,0.0295,0.022,-0.033,0.011,-0.4235,-0.395,-0.396,-0.356,-0.2775,-0.042
1.084,-0.0385,-0.0075,0.031,0.023,-0.035,0.012,-0.4275,-0.3965,-0.4005,-0.36,-0.2795,-0.051
1.085,-0.0495,-0.015,0.034,0.032,-0.042,0.01,-0.4315,-0.4005,-0.4055,-0.3625,-0.286,-0.05
1.086,-0.0615,-0.024,0.0375,0.0425,-0.0495,0.007,-0.433,-0.4035,-0.408,-0.3645,-0.2835,-0.0345
1.087,-0.053,-0.017,0.036,0.035,-0.0445,0.01,-0.444,-0.419,-0.423,-0.3815,-0.2905,-0.0445
1.088,-0.0485,-0.01,0.0385,0.029,-0.0435,0.0145,-0.4475,-0.426,-0.4345,-0.3945,-0.304,-0.057
1.089,-0.052,-0.016,0.036,0.034,-0.044,0.0105,-0.447,-0.4325,-0.4445,-0.404,-0.306,-0.0555
1.09,-0.0505,-0.0215,0.029,0.0355,-0.04,0.0045,-0.4505,-0.4405,-0.4535,-0.4125,-0.309,-0.0655
1.091,-0.0655,-0.0245,0.041,0.0445,-0.053,0.0085,-0.4445,-0.441,-0.4515,-0.4105,-0.308,-0.0555
1.092,-0.0675,-0.025,0.042,0.046,-0.0545,0.0085,-0.4395,-0.441,-0.4515,-0.409,-0.3005,-0.0485
1.093,-0.063,-0.022,0.041,0.042,-0.052,0.01,-0.436,-0.4375,-0.4475,-0.4055,-0.2985,-0.051
1.094,-0.0705,-0.027,0.0435,0.0485,-0.057,0.0085,-0.4235,-0.4295,-0.439,-0.399,-0.297,-0.0515
1.095,-0.0755,-0.038,0.037,0.0565,-0.0565,-0.0005,-0.425,-0.4255,-0.438,-0.402,-0.3,-0.0615
1.096,-0.079,-0.042,0.0365,0.06,-0.058,-0.0025,-0.426,-0.431,-0.4425,-0.406,-0.306,-0.0565
1.097,-0.0825,-0.0415,0.041,0.062,-0.062,0.0,-0.4245,-0.4255,-0.441,-0.4045,-0.307,-0.05
1.098,-0.093,-0.0495,0.0435,0.071,-0.0685,-0.0025,-0.432,-0.435,-0.4545,-0.4165,-0.3125,-0.0615
1.099,-0.0895,-0.049,0.041,0.069,-0.065,-0.004,-0.4205,-0.4315,-0.453,-0.4155,-0.3175,-0.067
1.1,-0.0855,-0.0495,0.0365,0.0675,-0.061,-0.006,-0.42,-0.4245,-0.4455,-0.4095,-0.325,-0.0685
1.101,-0.0925,-0.06,0.0325,0.076,-0.0625,-0.0135,-0.427,-0.434,-0.4545,-0.4205,-0.334,-0.078
1.102,-0.1005,-0.0535,0.047,0.0765,-0.0735,-0.003,-0.4265,-0.433,-0.458,-0.425,-0.341,-0.0865
1.103,-0.1115,-0.0595,0.052,0.085,-0.0815,-0.0035,-0.427,-0.441,-0.4665,-0.429,-0.3435,-0.0905
1.104,-0.1145,-0.063,0.0515,0.0885,-0.083,-0.0055,-0.4275,-0.441,-0.47,-0.434,-0.347,-0.0975
1.105,-0.1155,-0.0595,0.056,0.0875,-0.086,-0.0015,-0.431,-0.445,-0.4725,-0.439,-0.357,-0.104
1.106,-0.119,-0.0665,0.0525,0.0925,-0.086,-0.007,-0.422,-0.4405,-0.4675,-0.433,-0.35,-0.1
1.107,-0.1225,-0.0645,0.058,0.0935,-0.0905,-0.003,-0.4135,-0.4255,-0.4575,-0.425,-0.343,-0.0975
1.108,-0.1175,-0.069,0.049,0.093,-0.083,-0.01,-0.408,-0.4215,-0.45,-0.419,-0.3385,-0.093
1.109,-0.114,-0.0675,0.0465,0.0905,-0.08,-0.0105,-0.407,-0.4205,-0.4475,-0.416,-0.3385,-0.0935
1.11,-0.12,-0.0625,0.0575,0.091,-0.0885,-0.0025,-0.4195,-0.429,-0.4565,-0.425,-0.354,-0.1005
1.111,-0.1195,-0.061,0.0585,0.09,-0.089,-0.001,-0.421,-0.431,-0.457,-0.4245,-0.347,-0.0965
1.112,-0.1265,-0.069,0.0575,0.0975,-0.092,-0.0055,-0.413,-0.422,-0.451,-0.4215,-0.344,-0.0985
1.113,-0.1385,-0.072,0.0665,0.105,-0.1025,-0.0025,-0.4155,-0.424,-0.453,-0.4245,-0.355,-0.104
1.114,-0.132,-0.074,0.058,0.103,-0.095,-0.0075,-0.4225,-0.4335,-0.4625,-0.4315,-0.3555,-0.108
1.115,-0.128,-0.085,0.043,0.106,-0.0855,-0.021,-0.4305,-0.439,-0.4665,-0.4355,-0.362,-0.116
1.116,-0.1275,-0.0775,0.05,0.1025,-0.089,-0.0135,-0.428,-0.435,-0.4635,-0.4335,-0.359,-0.1055
1.117,-0.128,-0.078,0.0505,0.103,-0.0895,-0.0135,-0.424,-0.438,-0.4655,-0.438,-0.35,-0.0985
1.118,-0.1285,-0.0765,0.052,0.1025,-0.0905,-0.012,-0.427,-0.4415,-0.4675,-0.438,-0.352,-0.107
1.119,-0.124,-0.081,0.043,0.1025,-0.084,-0.0185,-0.428,-0.442,-0.4705,-0.4395,-0.3585,-0.1085
1.12,-0.1335,-0.0995,0.0335,0.116,-0.0835,-0.033,-0.4305,-0.444,-0.475,-0.4465,-0.359,-0.1125
1.121,-0.133,-0.096,0.037,0.114,-0.085,-0.0295,-0.4255,-0.434,-0.469,-0.443,-0.353,-0.113
1.122,-0.126,-0.0895,0.037,0.107,-0.0815,-0.026,-0.419,-0.432,-0.467,-0.4445,-0.3555,-0.1145
1.123,-0.1275,-0.088,0.0395,0.107,-0.0835,-0.024,-0.417,-0.436,-0.4735,-0.445,-0.357,-0.116
1.124,-0.1305,-0.092,0.039,0.1105,-0.085,-0.026,-0.416,-0.431,-0.4695,-0.4395,-0.36,-0.1185
1.125,-0.131,-0.0985,0.0325,0.114,-0.0815,-0.0325,-0.4155,-0.432,-0.4685,-0.4465,-0.3615,-0.1235
1.126,-0.1285,-0.0925,0.036,0.11,-0.082,-0.028,-0.4185,-0.436,-0.474,-0.451,-0.3605,-0.125
1.127,-0.1245,-0.0835,0.041,0.1035,-0.0825,-0.021,-0.421,-0.4365,-0.475,-0.45,-0.3645,-0.1235
1.128,-0.1275,-0.0885,0.0395,0.1075,-0.0835,-0.024,-0.4165,-0.4385,-0.4785,-0.4535,-0.365,-0.125
1.129,-0.1265,-0.089,0.038,0.107,-0.0825,-0.0255,-0.415,-0.436,-0.474,-0.4505,-0.3655,-0.125
1.13,-0.1205,-0.086,0.0345,0.103,-0.0775,-0.0255,-0.4165,-0.435,-0.4705,-0.4475,-0.3645,-0.1225
1.131,-0.119,-0.0855,0.0335,0.102,-0.0765,-0.0255,-0.4175,-0.43,-0.465,-0.442,-0.363,-0.1215
1.132,-0.1195,-0.0985,0.021,0.1085,-0.0705,-0.0385,-0.4175,-0.4285,-0.459,-0.435,-0.357,-0.115
1.133,-0.1255,-0.104,0.021,0.114,-0.0735,-0.041,-0.4215,-0.4345,-0.462,-0.4365,-0.358,-0.1165
1.134,-0.126,-0.0915,0.035,0.1085,-0.0805,-0.028,-0.417,-0.4285,-0.4605,-0.438,-0.363,-0.12
1.135,-0.13,-0.085,0.045,0.107,-0.0875,-0.02,-0.4095,-0.427,-0.462,-0.439,-0.3655,-0.1205
1.136,-0.1285,-0.084,0.0445,0.106,-0.0865,-0.0195,-0.4095,-0.4275,-0.461,-0.438,-0.3655,-0.1195
1.137,-0.1215,-0.087,0.0345,0.1035,-0.0775,-0.026,-0.411,-0.429,-0.4625,-0.439,-0.366,-0.12
1.138,-0.12,-0.085,0.0355,0.102,-0.0775,-0.0245,-0.414,-0.4265,-0.4625,-0.4385,-0.366,-0.12
1.139,-0.125,-0.083,0.042,0.104,-0.0835,-0.02,-0.4115,-0.4325,-0.462,-0.438,-0.365,-0.12
1.14,-0.131,-0.074,0.057,0.1025,-0.094,-0.008,-0.4145,-0.4365,-0.468,-0.443,-0.3715,-0.125
1.141,-0.1305,-0.0835,0.047,0.1065,-0.089,-0.018,-0.427,-0.428,-0.469,-0.445,-0.37,-0.1245
1.142,-0.122,-0.0925,0.0295,0.1065,-0.076,-0.031,-0.4135,-0.422,-0.4625,-0.4395,-0.365,-0.121
1.143,-0.117,-0.0825,0.0345,0.0995,-0.0755,-0.024,-0.396,-0.4155,-0.457,-0.4355,-0.3655,-0.1195
1.144,-0.123,-0.081,0.042,0.102,-0.0825,-0.019,-0.403,-0.4225,-0.4575,-0.4345,-0.3645,-0.1195
1.145,-0.13,-0.085,0.0445,0.107,-0.0875,-0.02,-0.401,-0.4225,-0.457,-0.433,-0.363,-0.1185
1.146,-0.13,-0.0905,0.0395,0.1095,-0.0845,-0.0255,-0.3985,-0.4195,-0.456,-0.4345,-0.3605,-0.1145
1.147,-0.121,-0.093,0.028,0.1065,-0.0745,-0.0325,-0.396,-0.4165,-0.4525,-0.429,-0.358,-0.1145
1.148,-0.1205,-0.0935,0.0275,0.106,-0.074,-0.033,-0.394,-0.4145,-0.453,-0.43,-0.358,-0.116
1.149,-0.1235,-0.0935,0.03,0.1075,-0.077,-0.0315,-0.3965,-0.418,-0.455,-0.4345,-0.3585,-0.116
1.15,-0.124,-0.0965,0.027,0.1095,-0.0755,-0.0345,-0.4015,-0.422,-0.457,-0.4345,-0.3595,-0.119
1.151,-0.13,-0.0875,0.043,0.108,-0.0865,-0.022,-0.4135,-0.4305,-0.4645,-0.4415,-0.3685,-0.127
1.152,-0.141,-0.0835,0.057,0.1115,-0.099,-0.013,-0.4095,-0.4225,-0.461,-0.4365,-0.366,-0.1225
1.153,-0.1405,-0.0915,0.049,0.115,-0.0945,-0.021,-0.4,-0.415,-0.455,-0.431,-0.359,-0.117
1.154,-0.133,-0.0915,0.0415,0.1115,-0.087,-0.0245,-0.396,-0.4125,-0.448,-0.4265,-0.357,-0.112
1.155,-0.133,-0.0985,0.0345,0.115,-0.0835,-0.032,-0.399,-0.412,-0.446,-0.4235,-0.3535,-0.1065
1.156,-0.126,-0.1105,0.0155,0.1175,-0.071,-0.047,-0.401,-0.4155,-0.4485,-0.424,-0.35,-0.1095
1.157,-0.115,-0.1065,0.0085,0.11,-0.062,-0.049,-0.3885,-0.409,-0.4415,-0.418,-0.348,-0.113
1.158,-0.112,-0.105,0.007,0.108,-0.0595,-0.049,-0.387,-0.405,-0.4385,-0.415,-0.3505,-0.111
1.159,-0.124,-0.106,0.018,0.114,-0.071,-0.0435,-0.3875,-0.401,-0.436,-0.413,-0.352,-0.112
1.16,-0.1345,-0.1015,0.033,0.1175,-0.0835,-0.034,-0.3865,-0.4005,-0.437,-0.414,-0.363,-0.1175
1.161,-0.133,-0.099,0.034,0.1155,-0.0835,-0.0325,-0.3905,-0.4025,-0.4385,-0.4145,-0.355,-0.11
1.162,-0.1355,-0.0915,0.0435,0.113,-0.0895,-0.024,-0.3865,-0.4005,-0.435,-0.412,-0.3465,-0.1095
1.163,-0.1435,-0.087,0.0565,0.1145,-0.1,-0.015,-0.386,-0.4,-0.434,-0.4105,-0.3545,-0.112
1.164,-0.148,-0.0805,0.068,0.1135,-0.108,-0.006,-0.382,-0.396,-0.427,-0.4045,-0.354,-0.108
1.165,-0.155,-0.0575,0.097,0.1055,-0.126,0.02,-0.3665,-0.386,-0.4165,-0.3935,-0.354,-0.1045
1.166,-0.1735,-0.014,0.1595,0.0935,-0.1665,0.073,-0.3585,-0.3785,-0.4045,-0.3845,-0.353,-0.098
1.167,-0.1885,0.035,0.224,0.0765,-0.206,0.13,-0.351,-0.3775,-0.395,-0.3755,-0.354,-0.0925
1.168,-0.203,0.0675,0.2705,0.0675,-0.237,0.1695,-0.333,-0.3645,-0.3765,-0.357,-0.351,-0.083
1.169,-0.213,0.09,0.303,0.0615,-0.258,0.197,-0.315,-0.3415,-0.3505,-0.3375,-0.343,-0.063
1.17,-0.219,0.1065,0.3255,0.056,-0.2725,0.216,-0.3115,-0.333,-0.34,-0.328,-0.3375,-0.049
1.171,-0.229,0.117,0.3465,0.0555,-0.2875,0.232,-0.3015,-0.32,-0.328,-0.323,-0.342,-0.062
1.172,-0.2305,0.1215,0.352,0.0545,-0.2915,0.237,-0.2845,-0.303,-0.3135,-0.3165,-0.3485,-0.0735
1.173,-0.2405,0.1225,0.363,0.0585,-0.302,0.2435,-0.2725,-0.272,-0.286,-0.2975,-0.353,-0.0775
1.174,-0.2525,0.118,0.371,0.067,-0.3115,0.2445,-0.247,-0.225,-0.2415,-0.267,-0.3495,-0.074
1.175,-0.247,0.1275,0.375,0.0595,-0.311,0.2515,-0.228,-0.19,-0.197,-0.2215,-0.3205,-0.07
1.176,-0.2365,0.155,0.3915,0.0405,-0.314,0.2735,-0.2225,-0.1625,-0.16,-0.1855,-0.305,-0.051
1.177,-0.219,0.1685,0.3875,0.025,-0.303,0.278,-0.208,-0.126,-0.112,-0.1445,-0.274,-0.0075
1.178,-0.1835,0.1825,0.366,0.0005,-0.275,0.2745,-0.209,-0.0915,-0.055,-0.0775,-0.2015,0.0165
1.179,-0.1425,0.203,0.3455,-0.0305,-0.244,0.2745,-0.226,-0.077,-0.0155,-0.0185,-0.123,0.0615
1.18,-0.117,0.2155,0.3325,-0.0495,-0.225,0.274,-0.2365,-0.064,0.0175,0.027,-0.0525,0.1155
1.181,-0.093,0.2295,0.3225,-0.069,-0.2075,0.2765,-0.2475,-0.044,0.049,0.06,0.0025,0.15
1.182,-0.0475,0.252,0.3,-0.1025,-0.174,0.2765,-0.261,-0.014,0.0955,0.11,0.073,0.198
1.183,0.009,0.274,0.2645,-0.142,-0.1275,0.2695,-0.286,0.002,0.1395,0.168,0.1705,0.2605
1.184,0.079,0.2905,0.211,-0.185,-0.066,0.251,-0.3215,0.008,0.1785,0.2325,0.296,0.341
1.185,0.155,0.305,0.1495,-0.2305,0.003,0.2275,-0.356,0.014,0.2075,0.2935,0.428,0.424
1.186,0.2275,0.324,0.0955,-0.2765,0.0665,0.21,-0.384,0.0285,0.2555,0.3675,0.5545,0.503
1.187,0.31,0.3495,0.039,-0.33,0.1355,0.1945,-0.4055,0.059,0.329,0.4725,0.702,0.592
1.188,0.381,0.3895,0.0075,-0.3855,0.1865,0.199,-0.434,0.0665,0.3805,0.57,0.8575,0.6865
1.189,0.4475,0.43,-0.018,-0.4395,0.2325,0.2065,-0.457,0.074,0.4395,0.679,1.0085,0.779
1.19,0.5315,0.4705,-0.0615,-0.5015,0.296,0.2045,-0.491,0.0905,0.504,0.791,1.153,0.8645
1.191,0.623,0.519,-0.1045,-0.5715,0.3635,0.2075,-0.5465,0.101,0.5775,0.921,1.321,0.969
1.192,0.7145,0.57,-0.145,-0.6425,0.4295,0.2125,-0.574,0.109,0.644,1.055,1.5035,1.0855
1.193,0.8195,0.62,-0.2,-0.7205,0.5095,0.21,-0.611,0.115,0.7105,1.193,1.6755,1.189
1.194,0.924,0.6715,-0.2525,-0.7985,0.588,0.2095,-0.6495,0.133,0.801,1.3595,1.8705,1.3085
1.195,1.0025,0.7125,-0.2895,-0.858,0.646,0.2115,-0.664,0.141,0.8725,1.505,2.0265,1.406
1.196,1.084,0.7225,-0.3615,-0.904,0.723,0.1805,-0.694,0.1255,0.911,1.616,2.1535,1.473
1.197,1.1785,0.7175,-0.461,-0.949,0.82,0.1285,-0.7355,0.089,0.9095,1.679,2.2755,1.539
1.198,1.2565,0.722,-0.534,-0.99,0.8955,0.094,-0.7705,0.044,0.895,1.7255,2.3585,1.584
1.199,1.286,0.7405,-0.5455,-1.0135,0.9155,0.0975,-0.7855,0.0135,0.8875,1.7685,2.393,1.6035
1.2,1.2965,0.7365,-0.56,-1.017,0.928,0.0885,-0.816,-0.0595,0.829,1.76,2.378,1.598
1.201,1.3055,0.7195,-0.586,-1.013,0.9455,0.067,-0.85,-0.162,0.7535,1.742,2.3615,1.5915
1.202,1.3035,0.682,-0.621,-0.9935,0.962,0.0305,-0.854,-0.198,0.731,1.7325,2.297,1.556
1.203,1.291,0.6225,-0.669,-0.9575,0.98,-0.0235,-0.8535,-0.2435,0.6615,1.646,2.1525,1.4745
1.204,1.2475,0.553,-0.6945,-0.901,0.971,-0.0705,-0.8335,-0.2835,0.572,1.5095,1.9435,1.3685
1.205,1.1785,0.4715,-0.7065,-0.8255,0.9425,-0.1175,-0.797,-0.2975,0.4975,1.381,1.698,1.233
1.206,1.117,0.4025,-0.7145,-0.76,0.9155,-0.156,-0.7775,-0.3505,0.382,1.234,1.4775,1.1195
1.207,1.066,0.327,-0.739,-0.697,0.9025,-0.206,-0.748,-0.3505,0.3195,1.1285,1.2725,1.0035
1.208,1.009,0.2645,-0.744,-0.637,0.8765,-0.2395,-0.7055,-0.3385,0.2665,1.033,1.072,0.88
1.209,0.9395,0.217,-0.723,-0.579,0.8315,-0.2525,-0.67,-0.3625,0.1715,0.9005,0.8775,0.7625
1.21,0.837,0.145,-0.692,-0.4915,0.7645,-0.273,-0.6385,-0.4065,0.0345,0.7105,0.623,0.5945
1.211,0.726,0.0925,-0.6335,-0.4095,0.6795,-0.27,-0.618,-0.46,-0.1135,0.5095,0.398,0.464
1.212,0.6295,0.071,-0.5585,-0.351,0.594,-0.2435,-0.6045,-0.5105,-0.2355,0.3495,0.2745,0.3915
1.213,0.533,0.047,-0.4855,-0.2905,0.5095,-0.2195,-0.6095,-0.587,-0.3785,0.1685,0.1705,0.335
1.214,0.438,0.0405,-0.3975,-0.24,0.418,-0.1785,-0.615,-0.645,-0.4885,0.024,0.086,0.2935
1.215,0.351,0.045,-0.306,-0.1985,0.3285,-0.1305,-0.611,-0.7065,-0.5965,-0.113,0.001,0.2425
1.216,0.267,0.0405,-0.227,-0.154,0.247,-0.093,-0.633,-0.809,-0.765,-0.3135,-0.1025,0.1925
1.217,0.1805,0.0165,-0.164,-0.099,0.172,-0.0735,-0.6485,-0.8995,-0.9275,-0.536,-0.219,0.1315
1.218,0.1095,-0.009,-0.1185,-0.051,0.1145,-0.0635,-0.6385,-0.9385,-1.03,-0.7025,-0.315,0.0765
1.219,0.0685,-0.0315,-0.1005,-0.019,0.0845,-0.066,-0.6265,-0.947,-1.081,-0.795,-0.376,0.0345
1.22,0.0465,-0.057,-0.104,0.0045,0.0755,-0.08,-0.609,-0.93,-1.0865,-0.833,-0.3975,0.0155
1.221,0.034,-0.072,-0.1065,0.0185,0.071,-0.0895,-0.586,-0.892,-1.052,-0.8175,-0.3955,0.006
1.222,0.0075,-0.078,-0.0855,0.035,0.0465,-0.0815,-0.553,-0.8355,-0.9885,-0.7725,-0.385,-0.0055
1.223,-0.032,-0.081,-0.049,0.056,0.0085,-0.0645,-0.51,-0.7705,-0.9175,-0.7135,-0.369,-0.0135
1.224,-0.0505,-0.11,-0.0595,0.08,0.0045,-0.0845,-0.4955,-0.7355,-0.884,-0.701,-0.389,-0.044
1.225,-0.0555,-0.153,-0.0975,0.104,0.021,-0.125,-0.4985,-0.722,-0.8815,-0.727,-0.416,-0.077
1.226,-0.066,-0.175,-0.1085,0.1195,0.021,-0.1415,-0.494,-0.7085,-0.8715,-0.737,-0.4355,-0.1035
1.227,-0.084,-0.185,-0.101,0.1335,0.0085,-0.1425,-0.488,-0.6885,-0.852,-0.743,-0.4525,-0.126
1.228,-0.091,-0.191,-0.1,0.14,0.0045,-0.145,-0.484,-0.6745,-0.835,-0.747,-0.4675,-0.149
1.229,-0.096,-0.198,-0.1025,0.146,0.0035,-0.15,-0.474,-0.6555,-0.8075,-0.7345,-0.4765,-0.1655
1.23,-0.1035,-0.2005,-0.097,0.1515,-0.0035,-0.149,-0.45,-0.615,-0.7615,-0.7025,-0.467,-0.1655
1.231,-0.113,-0.203,-0.09,0.157,-0.0115,-0.146,-0.4235,-0.5755,-0.721,-0.672,-0.4585,-0.1675
1.232,-0.1275,-0.215,-0.0875,0.1705,-0.0205,-0.151,-0.418,-0.5485,-0.692,-0.6495,-0.459,-0.1775
1.233,-0.1295,-0.2005,-0.071,0.164,-0.0295,-0.1355,-0.402,-0.523,-0.6575,-0.617,-0.4565,-0.1855
1.234,-0.1265,-0.183,-0.056,0.154,-0.0355,-0.1195,-0.3765,-0.4985,-0.626,-0.59,-0.4475,-0.1805
1.235,-0.1215,-0.1745,-0.053,0.1475,-0.0345,-0.1135,-0.375,-0.4855,-0.602,-0.57,-0.435,-0.1695
1.236,-0.1155,-0.1655,-0.05,0.14,-0.0325,-0.1075,-0.3775,-0.4695,-0.5735,-0.5405,-0.4195,-0.1565
1.237,-0.1095,-0.1755,-0.066,0.142,-0.022,-0.1205,-0.376,-0.4415,-0.5345,-0.503,-0.3985,-0.1395
1.238,-0.1045,-0.167,-0.0625,0.135,-0.021,-0.1145,-0.3835,-0.4225,-0.5015,-0.4685,-0.379,-0.125
1.239,-0.1,-0.132,-0.032,0.115,-0.034,-0.0815,-0.3915,-0.409,-0.475,-0.444,-0.366,-0.116
1.24,-0.0885,-0.1145,-0.026,0.1015,-0.031,-0.0705,-0.39,-0.393,-0.453,-0.4275,-0.3605,-0.1125
1.241,-0.0935,-0.112,-0.0185,0.1025,-0.0375,-0.065,-0.3865,-0.386,-0.4395,-0.4185,-0.3575,-0.112
1.242,-0.099,-0.1,-0.001,0.0995,-0.049,-0.05,-0.3845,-0.38,-0.4315,-0.4135,-0.3595,-0.1095
1.243,-0.0875,-0.0935,-0.006,0.09,-0.041,-0.049,-0.392,-0.383,-0.432,-0.416,-0.361,-0.1125
1.244,-0.095,-0.086,0.0085,0.09,-0.0515,-0.0385,-0.393,-0.3885,-0.441,-0.4265,-0.3655,-0.1225
1.245,-0.1,-0.0935,0.0065,0.0965,-0.0535,-0.043,-0.3845,-0.3855,-0.4415,-0.43,-0.3715,-0.124
1.246,-0.103,-0.11,-0.007,0.106,-0.048,-0.058,-0.379,-0.372,-0.428,-0.4195,-0.3645,-0.118
1.247,-0.1115,-0.1055,0.0055,0.108,-0.0585,-0.05,-0.374,-0.3675,-0.4265,-0.421,-0.367,-0.1205
1.248,-0.099,-0.09,0.0095,0.0945,-0.0545,-0.04,-0.3825,-0.3755,-0.4295,-0.428,-0.3765,-0.1285
1.249,-0.1135,-0.0945,0.019,0.1035,-0.066,-0.0375,-0.3875,-0.378,-0.435,-0.434,-0.383,-0.1335
1.25,-0.1215,-0.112,0.0095,0.1155,-0.0655,-0.051,-0.3855,-0.38,-0.4415,-0.438,-0.3855,-0.1355
1.251,-0.1055,-0.093,0.0125,0.099,-0.059,-0.04,-0.3845,-0.3755,-0.4345,-0.4325,-0.3825,-0.134
1.252,-0.0995,-0.0765,0.023,0.0875,-0.0615,-0.0265,-0.3875,-0.381,-0.4395,-0.44,-0.388,-0.1375
1.253,-0.102,-0.0785,0.0235,0.09,-0.063,-0.0275,-0.3885,-0.3805,-0.4395,-0.4415,-0.3885,-0.1365
1.254,-0.105,-0.0735,0.0315,0.089,-0.0685,-0.021,-0.379,-0.3775,-0.4335,-0.436,-0.3865,-0.1345
1.255,-0.1015,-0.0715,0.03,0.086,-0.0655,-0.0205,-0.377,-0.3765,-0.434,-0.436,-0.3855,-0.132
1.256,-0.1115,-0.0755,0.036,0.0935,-0.074,-0.0195,-0.376,-0.3675,-0.429,-0.433,-0.389,-0.141
1.257,-0.1115,-0.079,0.0325,0.095,-0.072,-0.023,-0.3765,-0.3735,-0.431,-0.4365,-0.3955,-0.141
1.258,-0.1055,-0.083,0.0225,0.094,-0.064,-0.03,-0.377,-0.373,-0.431,-0.434,-0.386,-0.132
1.259,-0.1025,-0.0915,0.0115,0.0965,-0.057,-0.04,-0.3755,-0.37,-0.4295,-0.431,-0.3805,-0.1365
1.26,-0.11,-0.0915,0.018,0.1005,-0.064,-0.0365,-0.3735,-0.3685,-0.427,-0.4295,-0.3805,-0.131
1.261,-0.119,-0.0865,0.033,0.1025,-0.076,-0.0265,-0.377,-0.3695,-0.428,-0.431,-0.3825,-0.134
1.262,-0.113,-0.085,0.028,0.0985,-0.0705,-0.028,-0.3785,-0.373,-0.4315,-0.4355,-0.3835,-0.135
1.263,-0.114,-0.088,0.026,0.101,-0.07,-0.031,-0.372,-0.368,-0.427,-0.4325,-0.3825,-0.1325
1.264,-0.1155,-0.096,0.019,0.1055,-0.067,-0.0385,-0.373,-0.3755,-0.433,-0.438,-0.3865,-0.1375
1.265,-0.1145,-0.0965,0.018,0.105,-0.066,-0.039,-0.3715,-0.376,-0.4345,-0.4385,-0.386,-0.1355
1.266,-0.107,-0.0865,0.021,0.0965,-0.064,-0.0325,-0.3865,-0.3665,-0.4205,-0.425,-0.378,-0.1235
1.267,-0.1085,-0.0905,0.018,0.099,-0.063,-0.036,-0.402,-0.3785,-0.4275,-0.4295,-0.3755,-0.1195
1.268,-0.107,-0.0855,0.0215,0.096,-0.064,-0.032,-0.3945,-0.376,-0.4305,-0.4325,-0.383,-0.125
1.269,-0.099,-0.0745,0.0245,0.0865,-0.0615,-0.025,-0.3795,-0.3635,-0.4195,-0.426,-0.3825,-0.1265
1.27,-0.109,-0.0845,0.0245,0.0965,-0.0665,-0.03,-0.3695,-0.371,-0.4265,-0.433,-0.384,-0.135
1.271,-0.1085,-0.081,0.0275,0.0945,-0.068,-0.0265,-0.375,-0.371,-0.4245,-0.43,-0.3875,-0.1345
1.272,-0.11,-0.067,0.043,0.088,-0.0765,-0.012,-0.3705,-0.3655,-0.417,-0.4245,-0.384,-0.1315
1.273,-0.117,-0.071,0.0465,0.0935,-0.0815,-0.012,-0.3665,-0.365,-0.4185,-0.428,-0.3845,-0.1325
1.274,-0.115,-0.0735,0.0415,0.094,-0.0785,-0.016,-0.3685,-0.3685,-0.421,-0.4305,-0.3825,-0.1295
1.275,-0.1145,-0.0725,0.042,0.093,-0.0785,-0.015,-0.3735,-0.374,-0.4265,-0.434,-0.38,-0.132
1.276,-0.1165,-0.0735,0.043,0.0945,-0.0795,-0.015,-0.372,-0.369,-0.421,-0.429,-0.3815,-0.1305
1.277,-0.1225,-0.075,0.048,0.0985,-0.085,-0.0135,-0.3635,-0.362,-0.417,-0.4245,-0.3855,-0.1295
1.278,-0.1165,-0.0795,0.037,0.0975,-0.0765,-0.021,-0.3655,-0.362,-0.4175,-0.425,-0.382,-0.1305
1.279,-0.114,-0.073,0.0415,0.093,-0.0775,-0.0155,-0.366,-0.362,-0.415,-0.424,-0.3805,-0.1285
1.28,-0.124,-0.072,0.052,0.098,-0.088,-0.0095,-0.371,-0.372,-0.423,-0.4275,-0.388,-0.13
1.281,-0.115,-0.079,0.0365,0.097,-0.076,-0.021,-0.3745,-0.373,-0.427,-0.43,-0.384,-0.1315
1.282,-0.1135,-0.082,0.0315,0.0975,-0.0725,-0.025,-0.374,-0.367,-0.419,-0.4245,-0.382,-0.1325
1.283,-0.1215,-0.0945,0.027,0.1075,-0.074,-0.0335,-0.3815,-0.3725,-0.4205,-0.4245,-0.384,-0.1325
1.284,-0.121,-0.0995,0.0215,0.1095,-0.0715,-0.0385,-0.3875,-0.3775,-0.4265,-0.43,-0.388,-0.1335
1.285,-0.12,-0.093,0.027,0.106,-0.0735,-0.0325,-0.387,-0.371,-0.4155,-0.4245,-0.3865,-0.1275
1.286,-0.1165,-0.086,0.031,0.101,-0.074,-0.027,-0.387,-0.3685,-0.4125,-0.424,-0.382,-0.1295
1.287,-0.119,-0.0815,0.0375,0.1,-0.0785,-0.022,-0.385,-0.3715,-0.416,-0.426,-0.387,-0.1335
1.288,-0.133,-0.0905,0.043,0.111,-0.088,-0.0235,-0.3745,-0.3605,-0.4085,-0.419,-0.3765,-0.1285
1.289,-0.133,-0.089,0.044,0.1105,-0.0885,-0.0225,-0.378,-0.3635,-0.408,-0.42,-0.3765,-0.1405
1.29,-0.1225,-0.0845,0.038,0.1035,-0.0805,-0.023,-0.38,-0.367,-0.411,-0.4225,-0.384,-0.133
1.291,-0.122,-0.093,0.029,0.1065,-0.0755,-0.0315,-0.3775,-0.359,-0.4045,-0.4175,-0.3745,-0.1145
1.292,-0.1275,-0.098,0.0295,0.112,-0.0785,-0.034,-0.382,-0.3625,-0.407,-0.4185,-0.3805,-0.1265
1.293,-0.129,-0.09,0.039,0.109,-0.084,-0.025,-0.3805,-0.363,-0.413,-0.4245,-0.386,-0.13
1.294,-0.1185,-0.0675,0.051,0.093,-0.0845,-0.008,-0.388,-0.3645,-0.4125,-0.423,-0.3835,-0.1265
1.295,-0.12,-0.066,0.054,0.093,-0.087,-0.006,-0.39,-0.366,-0.4135,-0.4215,-0.3835,-0.1265
1.296,-0.127,-0.077,0.0495,0.102,-0.0885,-0.0135,-0.384,-0.362,-0.4105,-0.4215,-0.381,-0.124
1.297,-0.129,-0.0785,0.0505,0.1035,-0.0895,-0.0135,-0.3795,-0.3615,-0.41,-0.4195,-0.3805,-0.127
1.298,-0.121,-0.0745,0.0465,0.0975,-0.084,-0.014,-0.381,-0.359,-0.4045,-0.414,-0.3795,-0.1245
1.299,-0.1195,-0.0765,0.0435,0.0975,-0.0815,-0.016,-0.381,-0.3585,-0.4035,-0.412,-0.3775,-0.128
1.3,-0.1315,-0.0725,0.059,0.1015,-0.095,-0.0065,-0.378,-0.3585,-0.411,-0.4195,-0.3855,-0.134
1.301,-0.1245,-0.067,0.057,0.0955,-0.0905,-0.005,-0.381,-0.36,-0.4085,-0.42,-0.387,-0.129
